1530261892.000000, IBI
27.891902,1.234432
29.157585,1.265683
30.454519,1.296934
31.688951,1.234432
33.048388,1.359437
34.189065,1.140677
35.579754,1.390689
36.876688,1.296934
38.189248,1.312560
39.579937,1.390689
40.814368,1.234432
42.236308,1.421940
43.658248,1.421940
44.892680,1.234432
46.205240,1.312560
47.455297,1.250057
48.877237,1.421940
50.346055,1.468817
51.611737,1.265683
52.986800,1.375063
54.221232,1.234432
55.549418,1.328186
56.877604,1.328186
72.315810,1.296934
73.643996,1.328186
74.878428,1.234432
76.206613,1.328186
77.378542,1.171929
78.534845,1.156303
80.019288,1.484443
81.488105,1.468817
82.738162,1.250057
84.113225,1.375063
85.441411,1.328186
86.660217,1.218806
87.863397,1.203180
89.113454,1.250057
90.254131,1.140677
91.488563,1.234432
92.691743,1.203180
93.707414,1.015671
94.863717,1.156303
96.066897,1.203180
97.160697,1.093800
104.395404,1.234432
105.629835,1.234432
106.864267,1.234432
108.176827,1.312560
109.520638,1.343812
110.895701,1.375063
112.161384,1.265683
113.286436,1.125051
114.724001,1.437566
115.989684,1.265683
117.364747,1.375063
118.833565,1.468817
120.239879,1.406314
121.396182,1.156303
156.272778,0.765660
157.163444,0.890666
219.431919,1.265683
220.400714,0.968794
221.682022,1.281309
223.041460,1.359437
224.275891,1.234432
225.666580,1.390689
226.963514,1.296934
228.322951,1.359437
251.777150,1.453192
253.183464,1.406314
254.386644,1.203180
255.808584,1.421940
257.293027,1.484443
258.699342,1.406314
259.949399,1.250057
261.386965,1.437566
262.840156,1.453192
264.293348,1.453192
265.746539,1.453192
267.184105,1.437566
268.590420,1.406314
269.949857,1.359437
271.465551,1.515694
272.934368,1.468817
274.184426,1.250057
275.590740,1.406314
277.043931,1.453192
278.356492,1.312560
279.778432,1.421940
281.215997,1.437566
282.591060,1.375063
283.997375,1.406314
285.403689,1.406314
286.794378,1.390689
288.138189,1.343812
289.466375,1.328186
290.857064,1.390689
292.122747,1.265683
293.466558,1.343812
294.763493,1.296934
295.935421,1.171929
297.294858,1.359437
298.685547,1.390689
299.919979,1.234432
301.357544,1.437566
302.685730,1.328186
303.935787,1.250057
305.310850,1.375063
312.639311,1.328186
313.998748,1.359437
315.295682,1.296934
332.671478,1.031297
333.671524,1.000046
334.718446,1.046923
335.702867,0.984420
336.687287,0.984420
337.593578,0.906291
338.531121,0.937543
339.671798,1.140677
340.749973,1.078174
341.750018,1.000046
342.765690,1.015671
343.718858,0.953169
344.593899,0.875040
345.734576,1.140677
346.718996,0.984420
347.640913,0.921917
348.719087,1.078174
355.250636,1.421940
356.531945,1.281309
357.860131,1.328186
359.172691,1.312560
360.360245,1.187554
361.735308,1.375063
363.141623,1.406314
373.907740,1.296934
375.173423,1.265683
376.642241,1.468817
377.954801,1.312560
379.298612,1.343812
380.704926,1.406314
382.033112,1.328186
383.298795,1.265683
384.689484,1.390689
385.939541,1.250057
387.314604,1.375063
388.595913,1.281309
389.908473,1.312560
391.252284,1.343812
392.533593,1.281309
393.814902,1.281309
395.127462,1.312560
396.424396,1.296934
397.705705,1.281309
399.096393,1.390689
400.346451,1.250057
401.627759,1.281309
403.002822,1.375063
404.237254,1.234432
405.549814,1.312560
406.971754,1.421940
408.268688,1.296934
409.675003,1.406314
411.034440,1.359437
412.347000,1.312560
413.597057,1.250057
414.737734,1.140677
415.940914,1.203180
416.878457,0.937543
423.706895,1.359437
424.941326,1.234432
426.253886,1.312560
427.628949,1.375063
428.972761,1.343812
430.269695,1.296934
431.660384,1.390689
432.957318,1.296934
434.285504,1.328186
435.707444,1.421940
437.020004,1.312560
438.145056,1.125051
439.410739,1.265683
440.817053,1.406314
449.551828,1.265683
450.958142,1.406314
452.286328,1.328186
453.552011,1.265683
454.802068,1.250057
456.177131,1.375063
457.599071,1.421940
458.833503,1.234432
460.099186,1.265683
461.568003,1.468817
462.958692,1.390689
464.318129,1.359437
465.552560,1.234432
466.958875,1.406314
468.458943,1.500069
469.802755,1.343812
470.990309,1.187554
472.334121,1.343812
473.756061,1.421940
475.115498,1.359437
476.271801,1.156303
477.490607,1.218806
478.771915,1.281309
480.100101,1.328186
481.193901,1.093800
482.412707,1.218806
483.740893,1.328186
485.100330,1.359437
486.272259,1.171929
487.459813,1.187554
488.709870,1.250057
489.944302,1.234432
491.053728,1.109426
492.194405,1.140677
493.475713,1.281309
494.803899,1.328186
495.928951,1.125051
502.585505,1.296934
503.773060,1.187554
505.054368,1.281309
506.351303,1.296934
507.632612,1.281309
508.882669,1.250057
510.023346,1.140677
511.179649,1.156303
512.351578,1.171929
513.507880,1.156303
514.804815,1.296934
516.117375,1.312560
517.367432,1.250057
518.679992,1.312560
519.945675,1.265683
521.273861,1.328186
522.602047,1.328186
523.945858,1.343812
525.274044,1.328186
526.461598,1.187554
527.805410,1.343812
529.149221,1.343812
530.243021,1.093800
531.586833,1.343812
540.477865,1.187554
541.806051,1.328186
543.134237,1.328186
544.384294,1.250057
545.649977,1.265683
547.009414,1.359437
548.321974,1.312560
549.431400,1.109426
550.650206,1.218806
552.025269,1.375063
553.150320,1.125051
554.384752,1.234432
555.619183,1.234432
556.916117,1.296934
565.994658,1.078174
567.041581,1.046923
568.135381,1.093800
569.244807,1.109426
570.322981,1.078174
571.416781,1.093800
572.526207,1.109426
573.713761,1.187554
574.870064,1.156303
585.433048,1.250057
586.558100,1.125051
587.683151,1.125051
588.917583,1.234432
590.136388,1.218806
591.417697,1.281309
592.542748,1.125051
599.793080,0.921917
600.730623,0.937543
607.355927,1.328186
608.605984,1.250057
609.887292,1.281309
611.246730,1.359437
612.262401,1.015671
613.481207,1.218806
614.840644,1.359437
616.043824,1.203180
617.184501,1.140677
618.434559,1.250057
619.606487,1.171929
620.872170,1.265683
622.184730,1.312560
623.309782,1.125051
624.559839,1.250057
625.856773,1.296934
627.075579,1.218806
637.747943,1.312560
639.044877,1.296934
640.310560,1.265683
641.451237,1.140677
642.654417,1.203180
644.029480,1.375063
645.342040,1.312560
651.342315,1.203180
652.670501,1.328186
653.951809,1.281309
655.045609,1.093800
656.248790,1.203180
657.373841,1.125051
658.311384,0.937543
659.389558,1.078174
660.467733,1.078174
661.467778,1.000046
662.764713,1.296934
663.936641,1.171929
665.092944,1.156303
666.171119,1.078174
667.343047,1.171929
674.390245,1.281309
675.593425,1.203180
676.843482,1.250057
678.093539,1.250057
679.187340,1.093800
680.359268,1.171929
681.624951,1.265683
682.859383,1.234432
683.968808,1.109426
685.234491,1.265683
686.531426,1.296934
687.750232,1.218806
688.906534,1.156303
690.234720,1.328186
691.516029,1.281309
692.703583,1.187554
693.891138,1.187554
695.078692,1.187554
696.188118,1.109426
697.219415,1.031297
698.531975,1.312560
699.860161,1.328186
700.907084,1.046923
702.157141,1.250057
703.469701,1.312560
715.720262,1.140677
716.939068,1.218806
718.236002,1.296934
725.548837,1.171929
726.783268,1.234432
727.986448,1.203180
741.627698,1.328186
742.862129,1.234432
744.174689,1.312560
745.596629,1.421940
751.862541,1.468817
753.159476,1.296934
754.425159,1.265683
755.706467,1.281309
756.909647,1.203180
758.144079,1.234432
759.394136,1.250057
760.534813,1.140677
761.675490,1.140677
762.988050,1.312560
764.253733,1.265683
765.425662,1.171929
766.675719,1.250057
767.878899,1.203180
787.004775,1.031297
788.004821,1.000046
789.036118,1.031297
790.333052,1.296934
797.114613,1.062549
798.177161,1.062549
799.130330,0.953169
800.380387,1.250057
807.161947,1.312560
808.333876,1.171929
809.615185,1.281309
810.990248,1.375063
812.162176,1.171929
813.427859,1.265683
814.849799,1.421940
816.099857,1.250057
817.334288,1.234432
818.646848,1.312560
819.990660,1.343812
821.271968,1.281309
822.693908,1.421940
824.006469,1.312560
825.037766,1.031297
826.084689,1.046923
849.523262,0.796911
850.335799,0.812537
851.195213,0.859414
852.085879,0.890666
853.085925,1.000046
854.101596,1.015671
855.195396,1.093800
856.164191,0.968794
856.992353,0.828163
868.602260,1.031297
869.586680,0.984420
1290.012175,0.531274
1294.996778,0.578151
1299.090715,0.593777
1299.700118,0.609403
1300.340772,0.640654
1300.950175,0.609403
1301.512701,0.562526
1302.090852,0.578151
1324.279368,0.750034
1325.029402,0.750034
1325.810688,0.781286
1326.685728,0.875040
1327.576394,0.890666
1328.404557,0.828163
1329.170217,0.765660
1329.873374,0.703157
1339.514441,0.687531
1340.280101,0.765660
1341.123889,0.843789
1342.077058,0.953169
1702.046660,0.890666
1702.999829,0.953169
1703.890495,0.890666
1704.734283,0.843789
1705.546820,0.812537
1744.845494,0.765660
1745.642406,0.796911
1746.470569,0.828163
1756.017881,0.984420
1756.986675,0.968794
1757.939844,0.953169
1758.814884,0.875040
1759.705549,0.890666
1760.533712,0.828163
1761.393127,0.859414
1762.174412,0.781286
1762.971324,0.796911
1946.292215,0.781286
1947.089127,0.796911
1947.870413,0.781286
1948.604821,0.734409
1949.307978,0.703157
1949.964258,0.656280
1950.651790,0.687531
1951.370573,0.718783
1952.214361,0.843789
1953.073776,0.859414
1954.011319,0.937543
2016.576683,0.875040
2017.467348,0.890666
2018.311137,0.843789
2019.076797,0.765660
2019.779954,0.703157
2020.748749,0.968794
2021.655040,0.906291
2022.498829,0.843789
2023.280114,0.781286
2061.328731,0.578151
2065.407043,0.703157
2066.094574,0.687531
2066.625848,0.531274
2067.344631,0.718783
2068.000911,0.656280
2073.657420,0.656280
2074.313700,0.656280
2074.969980,0.656280
2075.516880,0.546900
2076.173160,0.656280
2076.829440,0.656280
2077.376340,0.546900
2077.985743,0.609403
2078.610772,0.625029
2079.235801,0.625029
2079.813952,0.578151
2080.438981,0.625029
2081.110886,0.671906
2081.751541,0.640654
2082.329692,0.578151
2082.954721,0.625029
2083.564124,0.609403
2084.095398,0.531274
2084.736052,0.640654
2085.329829,0.593777
2085.876729,0.546900
2086.501758,0.625029
2087.142412,0.640654
2097.408507,0.609403
2097.971033,0.562526
2098.549185,0.578151
2099.189839,0.640654
2099.752365,0.562526
2172.271309,0.609403
2174.896429,0.468771
2175.474581,0.578151
2176.052732,0.578151
2176.599632,0.546900
2177.209035,0.609403
2177.662181,0.453146
2178.287210,0.625029
2181.006084,0.593777
2181.506107,0.500023
2182.084258,0.578151
2182.568655,0.484397
2183.131181,0.562526
2183.646830,0.515649
2184.224981,0.578151
2184.756256,0.531274
2185.240653,0.484397
2185.803179,0.562526
2186.303201,0.500023
2186.865727,0.562526
2187.443879,0.578151
2187.912650,0.468771
2188.506427,0.593777
2188.975199,0.468771
2189.522099,0.546900
2190.100250,0.578151
2190.678402,0.578151
2194.944222,0.578151
2195.428619,0.484397
2195.959893,0.531274
2196.522419,0.562526
2197.069319,0.546900
2197.600594,0.531274
2198.147494,0.546900
2198.741271,0.593777
2199.210042,0.468771
2199.647562,0.437520
2206.601006,0.562526
2207.101028,0.500023
2207.632303,0.531274
2208.132326,0.500023
2208.663600,0.531274
2209.210500,0.546900
2209.741774,0.531274
2210.257423,0.515649
2210.804323,0.546900
2211.366849,0.562526
2211.851246,0.484397
2214.804506,0.515649
2215.398283,0.593777
2215.992060,0.593777
2216.538960,0.546900
2217.101486,0.562526
2217.664012,0.562526
2218.242163,0.578151
2218.757812,0.515649
2219.335963,0.578151
2219.914115,0.578151
2220.445389,0.531274
2221.086044,0.640654
2221.648569,0.562526
2226.117524,0.578151
2226.680050,0.562526
2227.305078,0.625029
2227.867604,0.562526
2228.430130,0.562526
2229.039533,0.609403
2229.570807,0.531274
2230.164584,0.593777
2230.742736,0.578151
2231.274010,0.531274
2231.867787,0.593777
2232.430313,0.562526
2246.649714,0.625029
2262.166049,0.593777
2262.775452,0.609403
2263.384855,0.609403
2263.963006,0.578151
2266.900641,0.562526
2267.510044,0.609403
2287.589088,0.578151
2288.214116,0.625029
2288.714139,0.500023
2289.370419,0.656280
2289.979822,0.609403
2290.604851,0.625029
2291.183002,0.578151
2291.823657,0.640654
2292.417434,0.593777
2293.026837,0.609403
2580.196232,0.843789
2581.008769,0.812537
2581.836932,0.828163
2582.649469,0.812537
2907.429960,0.828163
2908.211246,0.781286
2909.039409,0.828163
2909.867572,0.828163
2910.633232,0.765660
2924.165102,1.109426
2925.165148,1.000046
2926.165193,1.000046
2927.087111,0.921917
2928.009028,0.921917
2928.946571,0.937543
2929.977868,1.031297
2930.946662,0.968794
2931.915457,0.968794
2932.978005,1.062549
2942.353434,0.953169
2943.275352,0.921917
2944.119140,0.843789
2945.025432,0.906291
2946.056729,1.031297
2946.994272,0.937543
2948.041195,1.046923
2949.088118,1.046923
2950.025661,0.937543
2950.963203,0.937543
2951.885121,0.921917
2952.822664,0.937543
2953.775832,0.953169
2954.775878,1.000046
2955.838427,1.062549
2956.900975,1.062549
2957.994775,1.093800
2958.947944,0.953169
2959.885487,0.937543
2960.807404,0.921917
2961.666818,0.859414
2962.557484,0.890666
2963.557530,1.000046
2964.635704,1.078174
2965.557621,0.921917
2966.401410,0.843789
2967.245199,0.843789
2968.104613,0.859414
2969.151536,1.046923
2970.229710,1.078174
2971.307885,1.078174
2972.323556,1.015671
2973.229848,0.906291
2974.229893,1.000046
2975.276816,1.046923
2976.261236,0.984420
2977.276908,1.015671
2978.292579,1.015671
2979.230122,0.937543
2980.230168,1.000046
2981.230214,1.000046
2982.199008,0.968794
2983.183428,0.984420
2984.214725,1.031297
2985.089766,0.875040
2985.949180,0.859414
2986.902349,0.953169
2987.933646,1.031297
2988.886814,0.953169
2989.777480,0.890666
2990.715023,0.937543
2991.761946,1.046923
2992.886997,1.125051
2993.824540,0.937543
2994.746458,0.921917
2995.621498,0.875040
2996.559041,0.937543
2997.496583,0.937543
2998.527881,1.031297
2999.574804,1.046923
3000.574849,1.000046
3001.528018,0.953169
3002.371807,0.843789
3003.153092,0.781286
3003.934378,0.781286
3004.637535,0.703157
3005.387570,0.750034
3006.231358,0.843789
3011.700359,0.984420
3012.575399,0.875040
3013.481690,0.906291
3014.419233,0.937543
3026.216648,0.843789
3026.982308,0.765660
3027.888600,0.906291
3028.794891,0.906291
3029.732434,0.937543
3030.654351,0.921917
3031.513766,0.859414
3032.388806,0.875040
3033.263846,0.875040
3034.107634,0.843789
3034.982674,0.875040
3035.810837,0.828163
3036.654626,0.843789
3037.498415,0.843789
3038.435957,0.937543
3039.357875,0.921917
3040.326669,0.968794
3041.357966,1.031297
3042.279883,0.921917
3051.967827,0.765660
3064.359019,0.703157
3071.078077,0.750034
3071.874988,0.796911
3123.846117,0.781286
3124.580526,0.734409
3125.361811,0.781286
3126.002466,0.640654
3126.815003,0.812537
3127.690043,0.875040
3187.520906,0.812537
3198.333901,0.781286
3199.083936,0.750034
3199.818344,0.734409
3200.615256,0.796911
3201.474670,0.859414
3202.380962,0.906291
3203.302879,0.921917
3204.193545,0.890666
3205.099836,0.906291
3205.927999,0.828163
3212.787688,0.875040
3213.709605,0.921917
3214.584645,0.875040
3223.928823,0.968794
3224.803863,0.875040
3225.725780,0.921917
3226.569569,0.843789
3227.538363,0.968794
3228.491532,0.953169
3247.804916,0.937543
3286.759824,0.968794
3287.541110,0.781286
3288.478652,0.937543
3289.353693,0.875040
3290.119353,0.765660
3290.916264,0.796911
3291.838181,0.921917
3292.775724,0.937543
3293.822647,1.046923
3294.853944,1.031297
3296.041499,1.187554
3302.416790,1.015671
3303.338708,0.921917
3304.276251,0.937543
3305.088788,0.812537
3305.995079,0.906291
3306.916996,0.921917
3307.713908,0.796911
3308.463942,0.750034
3309.432737,0.968794
3310.479660,1.046923
3311.589085,1.109426
3312.464125,0.875040
3313.370417,0.906291
3314.323586,0.953169
3350.700251,0.953169
3374.935735,0.875040
3375.732647,0.796911
3376.560810,0.828163
3377.560855,1.000046
3378.514024,0.953169
3379.514070,1.000046
3380.576618,1.062549
3381.514161,0.937543
3382.404827,0.890666
3383.232990,0.828163
3384.092404,0.859414
3384.967444,0.875040
3385.811233,0.843789
3391.498993,1.000046
3392.327156,0.828163
3393.202196,0.875040
3393.999108,0.796911
3394.827271,0.828163
3395.733562,0.906291
3396.546099,0.812537
3397.389888,0.843789
3398.311805,0.921917
3399.202471,0.890666
3400.108763,0.906291
3401.030680,0.921917
3401.811965,0.781286
3402.624503,0.812537
3403.421414,0.796911
3404.327706,0.906291
3405.249623,0.921917
3406.171540,0.921917
3406.984077,0.812537
3407.827866,0.843789
3416.140746,0.828163
3432.344613,0.812537
3433.266530,0.921917
3434.250950,0.984420
3435.125990,0.875040
3435.876025,0.750034
3436.907322,1.031297
3482.331276,1.000046
3483.300071,0.968794
3484.440748,1.140677
3485.409542,0.968794
3512.363901,1.062549
3513.285818,0.921917
3514.207735,0.921917
3515.129653,0.921917
3516.176575,1.046923
3517.129744,0.953169
3518.051661,0.921917
3518.973578,0.921917
3538.880740,0.796911
3539.708903,0.828163
3540.537066,0.828163
3557.850358,0.750034
3558.678521,0.828163
3559.631690,0.953169
3560.725490,1.093800
3561.834915,1.109426
3563.006844,1.171929
3563.975638,0.968794
3565.038187,1.062549
3566.006981,0.968794
3605.540041,1.000046
3612.087216,0.953169
3613.024759,0.937543
3613.946676,0.921917
3614.821716,0.875040
3615.806136,0.984420
3616.790556,0.984420
3617.790602,1.000046
3618.728145,0.937543
3619.759442,1.031297
3620.665733,0.906291
3652.026544,0.875040
3652.901584,0.875040
3653.807875,0.906291
3654.667290,0.859414
3655.526704,0.859414
3656.401744,0.875040
3657.276784,0.875040
3657.995567,0.718783
3658.854981,0.859414
3659.745647,0.890666
3660.558184,0.812537
3661.323844,0.765660
3662.214510,0.890666
3663.120802,0.906291
3663.964590,0.843789
3664.886508,0.921917
3665.792799,0.906291
3666.667839,0.875040
3667.527253,0.859414
3668.558551,1.031297
3669.339836,0.781286
3670.199251,0.859414
3671.027414,0.828163
3671.855577,0.828163
3672.839997,0.984420
3673.824417,0.984420
3674.761960,0.937543
3675.715128,0.953169
3734.858461,1.109426
3735.952261,1.093800
3736.889804,0.937543
3737.717967,0.828163
3738.530504,0.812537
3739.655555,1.125051
3740.639975,0.984420
3741.640021,1.000046
3742.733821,1.093800
3743.686990,0.953169
3744.655784,0.968794
3745.608953,0.953169
3746.734004,1.125051
3747.843430,1.109426
3748.890353,1.046923
3756.687585,0.875040
3757.672005,0.984420
3758.828308,1.156303
3777.813552,1.078174
3778.719844,0.906291
3779.626135,0.906291
3780.610555,0.984420
3781.579350,0.968794
3782.548144,0.968794
3783.626318,1.078174
3784.548235,0.921917
3785.517030,0.968794
3786.501450,0.984420
3787.470244,0.968794
3788.314033,0.843789
3789.251576,0.937543
3790.142241,0.890666
3791.064159,0.921917
3792.001702,0.937543
3792.939245,0.937543
3793.689279,0.750034
3794.486190,0.796911
3795.329979,0.843789
3804.158508,1.015671
3805.236682,1.078174
3806.236728,1.000046
3807.346154,1.109426
3808.283697,0.937543
3809.236866,0.953169
3810.033777,0.796911
3810.752560,0.718783
3811.549471,0.796911
3812.440137,0.890666
3822.456221,1.078174
3835.222430,0.875040
3873.911701,0.937543
3874.708612,0.796911
3976.775784,1.046923
3977.728953,0.953169
3978.807127,1.078174
3979.744670,0.937543
3980.619710,0.875040
3981.432248,0.812537
3987.651282,1.218806
3988.729457,1.078174
3989.729502,1.000046
3990.807677,1.078174
3991.870225,1.062549
3998.729914,1.046923
3999.808089,1.078174
4000.964392,1.156303
4002.042566,1.078174
4003.276998,1.234432
4004.683312,1.406314
4010.355447,1.187554
4011.402369,1.046923
4012.543047,1.140677
4013.511841,0.968794
4014.621267,1.109426
4015.824447,1.203180
4017.043253,1.218806
4018.324561,1.281309
4019.527741,1.203180
4020.809050,1.281309
4021.918476,1.109426
4023.074779,1.156303
4024.293585,1.218806
4025.512390,1.218806
4026.621816,1.109426
4027.559359,0.937543
4028.528153,0.968794
4039.763043,0.953169
4041.013100,1.250057
4042.138151,1.125051
4043.341331,1.203180
4044.513260,1.171929
4045.560183,1.046923
4046.560229,1.000046
4047.560275,1.000046
4048.732203,1.171929
4049.982260,1.250057
4050.966681,0.984420
4052.044855,1.078174
4053.138655,1.093800
4054.310584,1.171929
4055.420009,1.109426
4056.341927,0.921917
4057.201341,0.859414
4058.263890,1.062549
4059.420192,1.156303
4060.513993,1.093800
4061.607793,1.093800
4062.529710,0.921917
4066.779904,0.937543
4067.654944,0.875040
4068.623739,0.968794
4069.576907,0.953169
4070.483199,0.906291
4071.576999,1.093800
4072.717676,1.140677
4073.811476,1.093800
4074.967779,1.156303
4075.983451,1.015671
4076.967871,0.984420
4078.014794,1.046923
4079.061717,1.046923
4080.249271,1.187554
4081.124311,0.875040
4082.014977,0.890666
4082.843140,0.828163
4083.640051,0.796911
4089.734080,1.093800
4090.796629,1.062549
4091.749797,0.953169
4132.157897,0.843789
4341.464353,0.828163
4342.230013,0.765660
4343.058176,0.828163
4343.870713,0.812537
4344.667624,0.796911
4345.370782,0.703157
4354.824339,0.765660
4355.605625,0.781286
4356.293157,0.687531
4356.949437,0.656280
4357.668220,0.718783
4358.340125,0.671906
4521.956990,0.828163
4522.753901,0.796911
4523.550813,0.796911
4524.503981,0.953169
4525.269641,0.765660
4591.585177,0.718783
4592.319586,0.734409
4593.022743,0.703157
4593.741526,0.718783
4594.600940,0.859414
4723.669348,1.015671
4886.458050,0.875040
4903.927599,0.843789
4904.724511,0.796911
4905.458920,0.734409
4940.679282,0.796911
4941.429316,0.750034
4955.304951,0.875040
4962.961552,1.015671
4963.742837,0.781286
4974.399575,0.906291
4975.305867,0.906291
4976.134030,0.828163
4976.962193,0.828163
5006.026023,0.937543
5017.323415,0.828163
5022.370521,0.859414
5023.214310,0.843789
5024.120601,0.906291
5025.151898,1.031297
5026.167570,1.015671
5027.089487,0.921917
5028.042656,0.953169
5028.964573,0.921917
5029.777110,0.812537
5049.918657,0.750034
5050.699943,0.781286
5051.621860,0.921917
5052.528152,0.906291
5053.278186,0.750034
5054.059472,0.781286
5054.872009,0.812537
5076.529250,0.796911
5077.373039,0.843789
5078.232453,0.859414
5079.123119,0.890666
5080.091913,0.968794
5081.154462,1.062549
5082.092005,0.937543
5082.982671,0.890666
5083.779582,0.796911
5084.842131,1.062549
5085.842176,1.000046
5086.764094,0.921917
5087.701637,0.937543
5088.498548,0.796911
5089.357962,0.859414
5090.295505,0.937543
5111.796489,0.906291
5112.827787,1.031297
5114.062218,1.234432
5115.249773,1.187554
5116.452953,1.203180
5117.624881,1.171929
5139.704017,0.812537
5140.422800,0.718783
5141.204086,0.781286
5142.000997,0.796911
5147.173109,0.828163
5147.985646,0.812537
5149.001318,1.015671
5149.798229,0.796911
5150.626392,0.828163
5173.158673,0.968794
5174.049339,0.890666
5174.846251,0.796911
5189.471920,0.843789
5190.284457,0.812537
5191.034492,0.750034
5191.878280,0.843789
5192.815823,0.937543
5239.942980,0.906291
5240.786769,0.843789
5241.583680,0.796911
5242.411843,0.828163
5243.255632,0.843789
5263.740945,0.843789
5264.631610,0.890666
5265.428522,0.796911
5266.256685,0.828163
5267.178602,0.921917
5268.272402,1.093800
5291.867232,0.843789
5292.726646,0.859414
5293.601686,0.875040
5294.445475,0.843789
5295.414269,0.968794
5296.508070,1.093800
5310.071190,0.906291
5310.821225,0.750034
5311.680639,0.859414
5312.446299,0.765660
5356.588945,0.750034
5357.479610,0.890666
5369.245774,0.734409
5369.886428,0.640654
5474.656849,0.859414
5475.547515,0.890666
5476.485058,0.937543
5477.297595,0.812537
5478.125758,0.828163
5478.969546,0.843789
5479.844586,0.875040
5480.719626,0.875040
5481.625918,0.906291
5482.438455,0.812537
5483.219741,0.781286
5483.969775,0.750034
5484.797938,0.828163
5485.610475,0.812537
5486.469890,0.859414
5487.407433,0.937543
5488.407478,1.000046
5494.298373,0.734409
5495.064033,0.765660
5495.845319,0.781286
5501.314319,0.890666
5502.220611,0.906291
5503.126902,0.906291
5504.173825,1.046923
5507.955248,0.828163
5649.946123,0.843789
5650.805537,0.859414
5651.602449,0.796911
5652.352483,0.750034
5668.228210,0.781286
5676.181699,0.937543
5676.978611,0.796911
5677.744271,0.765660
5678.556808,0.812537
5679.322468,0.765660
5680.213134,0.890666
5681.119425,0.906291
5682.072594,0.953169
5688.526014,0.796911
5689.322926,0.796911
5690.229217,0.906291
5691.135509,0.906291
5692.088677,0.953169
5692.901214,0.812537
5693.713752,0.812537
5694.526289,0.812537
5695.276323,0.750034
5696.041983,0.765660
5696.760766,0.718783
5697.604555,0.843789
5713.495907,0.781286
5714.324070,0.828163
5715.105356,0.781286
5715.886642,0.781286
5716.605424,0.718783
5717.480464,0.875040
5721.152508,0.921917
5722.136928,0.984420
5803.562530,0.953169
5804.453196,0.890666
5805.343861,0.890666
5806.234527,0.890666
5807.125193,0.890666
5808.125239,1.000046
5808.922150,0.796911
5809.859693,0.937543
5810.922242,1.062549
5811.750405,0.828163
5812.641070,0.890666
5813.516110,0.875040
5854.658619,0.687531
5861.627688,0.796911
5909.973651,0.968794
5910.864316,0.890666
5911.786234,0.921917
5912.676899,0.890666
5913.442559,0.765660
5914.223845,0.781286
5915.036382,0.812537
5916.005177,0.968794
5916.942720,0.937543
5917.911514,0.968794
5918.802180,0.890666
5919.614717,0.812537
5920.442880,0.828163
5921.380423,0.937543
5922.396094,1.015671
5923.458643,1.062549
5924.505566,1.046923
5925.552489,1.046923
5926.552535,1.000046
5927.615083,1.062549
5928.708883,1.093800
5929.677678,0.968794
5930.646472,0.968794
5931.662143,1.015671
5932.630938,0.968794
5933.552855,0.921917
5934.412269,0.859414
5935.271684,0.859414
5936.318607,1.046923
5937.209272,0.890666
5938.146815,0.937543
5939.115610,0.968794
5939.959398,0.843789
5940.803187,0.843789
5941.600098,0.796911
5942.412636,0.812537
5959.616548,0.906291
6001.977862,0.921917
6002.868528,0.890666
6003.806071,0.937543
6051.745765,0.984420
6052.714560,0.968794
6053.558348,0.843789
6054.355260,0.796911
6055.277177,0.921917
6056.105340,0.828163
6056.964754,0.859414
6058.074180,1.109426
6058.964846,0.890666
6128.249267,0.875040
6129.061804,0.812537
6129.827464,0.765660
6130.702504,0.875040
6180.407905,0.968794
6181.517330,1.109426
6182.689259,1.171929
6183.908065,1.218806
6185.033116,1.125051
6186.095665,1.062549
6187.173839,1.078174
6188.298891,1.125051
6189.439568,1.140677
6190.548994,1.109426
6191.674045,1.125051
6192.736594,1.062549
6210.565535,0.812537
6211.409324,0.843789
6212.393744,0.984420
6213.378164,0.984420
6214.300081,0.921917
6219.300310,0.890666
6220.253479,0.953169
6221.066016,0.812537
6221.894179,0.828163
6271.287065,1.046923
6272.396490,1.109426
6273.365285,0.968794
6274.255950,0.890666
6275.224745,0.968794
6293.334949,1.031297
6294.131860,0.796911
6295.116280,0.984420
6302.976015,0.875040
6303.772926,0.796911
6340.180843,0.750034
6340.884000,0.703157
6346.212369,1.109426
6347.040532,0.828163
6347.837443,0.796911
6348.712483,0.875040
6349.525021,0.812537
6350.462564,0.937543
6351.384481,0.921917
6352.228269,0.843789
6549.331042,0.968794
6613.115211,1.140677
6625.100135,0.984420
6642.679065,0.750034
6643.507228,0.828163
6688.118645,0.921917
6689.134316,1.015671
6790.342074,0.796911
6798.904966,0.812537
6862.282867,1.093800
6872.548962,1.000046
6873.455253,0.906291
6874.502176,1.046923
6875.392842,0.890666
6968.131462,1.031297
6969.115882,0.984420
6969.944045,0.828163
6970.740957,0.796911
6971.678499,0.937543
6972.647294,0.968794
6973.553585,0.906291
6974.553631,1.000046
6975.413045,0.859414
7066.620346,1.031297
7067.682894,1.062549
7068.729817,1.046923
7120.482186,0.734409
7121.169718,0.687531
7822.264310,0.546900
7943.113592,0.828163
7943.988632,0.875040
7944.863672,0.875040
7945.691835,0.828163
7946.629378,0.937543
7947.551295,0.921917
7948.441961,0.890666
7949.395129,0.953169
7950.332672,0.937543
7951.223338,0.890666
7952.098378,0.875040
7952.989044,0.890666
7953.848458,0.859414
7954.739124,0.890666
7955.661041,0.921917
7956.567333,0.906291
7957.489250,0.921917
7958.442418,0.953169
7959.348710,0.906291
7960.239376,0.890666
7961.161293,0.921917
7986.724963,0.906291
7987.584377,0.859414
7988.506294,0.921917
7989.443837,0.937543
7999.241161,0.921917
8000.147452,0.906291
8001.084995,0.937543
8001.975661,0.890666
8002.866327,0.890666
8003.772618,0.906291
8004.616407,0.843789
8005.460196,0.843789
8006.303984,0.843789
8007.163399,0.859414
8008.007187,0.843789
8008.850976,0.843789
8009.710390,0.859414
8035.977217,0.843789
8036.852257,0.875040
8037.664795,0.812537
8038.477332,0.812537
8039.274243,0.796911
8040.086781,0.812537
8040.883692,0.796911
8041.664978,0.781286
8042.430638,0.765660
8043.211924,0.781286
8043.961958,0.750034
8044.665115,0.703157
8045.368272,0.703157
8046.227687,0.859414
8047.133978,0.906291
8047.946515,0.812537
8048.805930,0.859414
8049.712221,0.906291
8050.618513,0.906291
8051.446676,0.828163
8052.227961,0.781286
8053.056124,0.828163
8053.806159,0.750034
8054.603070,0.796911
8055.446859,0.843789
8056.415653,0.968794
8057.259442,0.843789
8067.650542,0.968794
8068.588085,0.937543
8069.478751,0.890666
8076.807211,0.765660
8077.525994,0.718783
8078.260403,0.734409
8102.277127,0.875040
8103.105290,0.828163
8103.886576,0.781286
8104.683487,0.796911
8105.511650,0.828163
8106.339813,0.828163
8107.121099,0.781286
8107.886759,0.765660
8108.714922,0.828163
8109.574336,0.859414
8110.386873,0.812537
8111.183785,0.796911
8112.043199,0.859414
8112.886988,0.843789
8113.699525,0.812537
8114.512062,0.812537
8115.371477,0.859414
8116.199640,0.828163
8116.980925,0.781286
8117.730960,0.750034
8118.496620,0.765660
8119.324783,0.828163
8120.090443,0.765660
8120.887354,0.796911
8121.684266,0.796911
8122.543680,0.859414
8123.387469,0.843789
8124.246883,0.859414
8125.043794,0.796911
8125.903209,0.859414
8135.888041,0.890666
8136.731829,0.843789
8137.653747,0.921917
8138.560038,0.906291
8139.450704,0.890666
8140.325744,0.875040
8141.185158,0.859414
8142.075824,0.890666
8142.903987,0.828163
8143.700898,0.796911
8144.529061,0.828163
8145.372850,0.843789
8146.216639,0.843789
8146.982299,0.765660
8184.780904,0.781286
8185.530938,0.750034
8186.327850,0.796911
8187.156013,0.828163
8187.952924,0.796911
8188.765461,0.812537
8189.593624,0.828163
8190.406161,0.812537
8191.218699,0.812537
8191.984359,0.765660
8192.750019,0.765660
8193.453176,0.703157
8194.156333,0.703157
8194.890742,0.734409
8195.609524,0.718783
8196.375185,0.765660
8197.203347,0.828163
8198.078387,0.875040
8198.875299,0.796911
8199.703462,0.828163
8200.547251,0.843789
8201.453542,0.906291
8202.297331,0.843789
8203.172371,0.875040
8204.016159,0.843789
8213.297834,0.875040
8214.157248,0.859414
8215.032289,0.875040
8226.845329,1.031297
8227.829749,0.984420
8228.736041,0.906291
8229.579829,0.843789
8230.439244,0.859414
8234.361298,0.875040
8235.251964,0.890666
8236.080127,0.828163
8236.908290,0.828163
8237.783330,0.875040
8238.689621,0.906291
8239.486533,0.796911
8240.267819,0.781286
8241.080356,0.812537
8241.908519,0.828163
8242.799185,0.890666
8243.721102,0.921917
8244.564890,0.843789
8245.424305,0.859414
8246.283719,0.859414
8247.174385,0.890666
8248.049425,0.875040
8248.908839,0.859414
8249.752628,0.843789
8250.643294,0.890666
8251.487082,0.843789
8252.237117,0.750034
8252.987151,0.750034
8253.784062,0.796911
8254.674728,0.890666
8255.612271,0.937543
8256.502937,0.890666
8257.440480,0.937543
8258.315520,0.875040
8259.190560,0.875040
8260.034348,0.843789
8266.597149,0.906291
8267.425312,0.828163
8268.175346,0.750034
8268.956632,0.781286
8269.784795,0.828163
8270.550455,0.765660
8271.316115,0.765660
8272.081775,0.765660
8272.894312,0.812537
8311.364823,0.718783
8312.192986,0.828163
8313.161780,0.968794
8314.146200,0.984420
8319.427692,0.781286
8320.240229,0.812537
8321.115269,0.875040
8322.005935,0.890666
8322.912227,0.906291
8323.834144,0.921917
8324.740435,0.906291
8325.631101,0.890666
8326.474890,0.843789
8333.287702,0.828163
8334.193993,0.906291
8335.209665,1.015671
8341.506828,0.937543
8342.381868,0.875040
8343.319411,0.937543
8344.210077,0.890666
8345.085117,0.875040
8345.928905,0.843789
8360.601452,0.921917
8377.945996,0.781286
8378.711656,0.765660
8379.430439,0.718783
8380.133596,0.703157
8396.884363,0.906291
8397.790654,0.906291
8398.665694,0.875040
8399.525109,0.859414
8400.400149,0.875040
8401.275189,0.875040
8402.165854,0.890666
8402.962766,0.796911
8403.837806,0.875040
8404.556589,0.718783
8405.306623,0.750034
8406.072283,0.765660
8406.931698,0.859414
8407.853615,0.921917
8408.744281,0.890666
8409.650572,0.906291
8410.541238,0.890666
8411.385026,0.843789
8412.181938,0.796911
8412.978849,0.796911
8413.791387,0.812537
8414.557047,0.765660
8415.322707,0.765660
8447.542932,0.843789
8448.449223,0.906291
8449.324263,0.875040
8450.183677,0.859414
8450.996215,0.812537
8451.824378,0.828163
8452.668166,0.843789
8453.527580,0.859414
8454.324492,0.796911
8455.137029,0.812537
8455.918315,0.781286
8456.746478,0.828163
8457.449635,0.703157
8461.684204,0.921917
8462.606121,0.921917
8463.543664,0.937543
8464.449955,0.906291
8465.309370,0.859414
8466.153158,0.843789
8466.950070,0.796911
8467.731356,0.781286
8468.481390,0.750034
8469.200173,0.718783
8469.918956,0.718783
8470.637739,0.718783
8471.372147,0.734409
8472.200310,0.828163
8473.059725,0.859414
8473.903513,0.843789
8474.762928,0.859414
8475.575465,0.812537
8476.372376,0.796911
8477.153662,0.781286
8477.950573,0.796911
8478.747485,0.796911
8479.591274,0.843789
8480.294431,0.703157
8505.951855,0.890666
8506.873772,0.921917
8507.795689,0.921917
8508.686355,0.890666
8509.514518,0.828163
8510.327055,0.812537
8511.170844,0.843789
8511.967755,0.796911
8512.795918,0.828163
8513.639707,0.843789
8521.499442,0.968794
8522.468236,0.968794
8523.390153,0.921917
8524.312070,0.921917
8525.233988,0.921917
8526.155905,0.921917
8527.015319,0.859414
8527.890359,0.875040
8528.874779,0.984420
8529.859199,0.984420
8530.749865,0.890666
8531.656157,0.906291
8532.578074,0.921917
8533.499991,0.921917
8534.406282,0.906291
8535.359451,0.953169
8548.110035,0.921917
8549.031952,0.921917
8549.922618,0.890666
8550.735155,0.812537
8551.578943,0.843789
8552.422732,0.843789
8553.297772,0.875040
8554.110309,0.812537
8554.969724,0.859414
8555.907267,0.937543
8556.907312,1.000046
8557.829230,0.921917
8558.704270,0.875040
8559.563684,0.859414
8560.438724,0.875040
8561.298138,0.859414
8562.188804,0.890666
8563.048218,0.859414
8563.892007,0.843789
8564.720170,0.828163
8565.610836,0.890666
8566.407747,0.796911
8567.189033,0.781286
8568.064073,0.875040
8568.892236,0.828163
8569.751650,0.859414
8570.611065,0.859414
8571.470479,0.859414
8572.298642,0.828163
8573.111179,0.812537
8573.923716,0.812537
8574.814382,0.890666
8575.673796,0.859414
8576.564462,0.890666
8577.470754,0.906291
8578.408297,0.937543
8586.283657,0.875040
8605.393907,1.031297
8606.409578,1.015671
8607.393998,0.984420
8608.347167,0.953169
8609.284710,0.937543
8610.144124,0.859414
8611.050416,0.906291
8611.956707,0.906291
8612.831747,0.875040
8613.675536,0.843789
8614.581827,0.906291
8615.550622,0.968794
8616.503790,0.953169
8617.331953,0.828163
8636.660963,0.968794
8637.629757,0.968794
8638.567300,0.937543
8639.520469,0.953169
8640.442386,0.921917
8641.395555,0.953169
8642.317472,0.921917
8643.239389,0.921917
8644.161306,0.921917
8645.098849,0.937543
8645.989515,0.890666
8646.911432,0.921917
8647.755221,0.843789
8648.630261,0.875040
8649.536552,0.906291
8650.489721,0.953169
8651.411638,0.921917
8652.380433,0.968794
8706.570413,1.125051
8707.445453,0.875040
8708.382996,0.937543
8726.993223,0.843789
8727.899514,0.906291
8728.758929,0.859414
8729.555840,0.796911
8730.321500,0.765660
8731.134037,0.812537
8731.852820,0.718783
8732.634106,0.781286
8733.384140,0.750034
8734.181052,0.796911
8734.977963,0.796911
8735.743623,0.765660
8736.493658,0.750034
8737.212441,0.718783
8737.978101,0.765660
8738.696884,0.718783
8739.431292,0.734409
8740.165701,0.734409
8740.868858,0.703157
8741.587641,0.718783
8746.056596,0.859414
8751.775607,0.843789
8752.681899,0.906291
8753.556939,0.875040
8754.400728,0.843789
8755.228890,0.828163
8756.150808,0.921917
8756.994596,0.843789
8757.885262,0.890666
8758.838431,0.953169
8759.822851,0.984420
8760.791645,0.968794
8761.697937,0.906291
8762.619854,0.921917
8763.526145,0.906291
8764.432437,0.906291
8765.323102,0.890666
8766.213768,0.890666
8767.120060,0.906291
8768.010725,0.890666
8768.807637,0.796911
8769.588923,0.781286
8770.338957,0.750034
8771.088991,0.750034
8772.042160,0.953169
8772.979703,0.937543
8773.792240,0.812537
8781.245706,0.859414
8782.120746,0.875040
8782.933284,0.812537
8783.761446,0.828163
8784.573984,0.812537
8785.417772,0.843789
8786.245935,0.828163
8787.074098,0.828163
8787.933512,0.859414
8788.808553,0.875040
8789.683593,0.875040
8790.558633,0.875040
8791.480550,0.921917
8792.402467,0.921917
8793.324384,0.921917
8794.136921,0.812537
8794.965084,0.828163
8795.824499,0.859414
8796.887047,1.062549
8797.918344,1.031297
8798.840262,0.921917
8799.840307,1.000046
8800.902856,1.062549
8801.949779,1.046923
8802.965451,1.015671
8803.965496,1.000046
8804.965542,1.000046
8805.918711,0.953169
8806.840628,0.921917
8807.778171,0.937543
8808.637585,0.859414
8809.559502,0.921917
8810.528297,0.968794
8811.497091,0.968794
8812.419008,0.921917
8813.419054,1.000046
8814.387848,0.968794
8815.341017,0.953169
8816.294186,0.953169
8817.184851,0.890666
8818.091143,0.906291
8818.841177,0.750034
8819.622463,0.781286
8820.481877,0.859414
8861.343123,1.015671
8862.249415,0.906291
8863.077578,0.828163
8863.968243,0.890666
8864.812032,0.843789
8865.671446,0.859414
8866.640241,0.968794
8867.593409,0.953169
8868.577829,0.984420
8869.577875,1.000046
8870.421664,0.843789
8871.218575,0.796911
8872.046738,0.828163
8872.890527,0.843789
8873.718690,0.828163
8874.531227,0.812537
8875.343764,0.812537
8876.125050,0.781286
8876.921961,0.796911
8877.750124,0.828163
8878.609539,0.859414
8879.422076,0.812537
8880.172110,0.750034
8880.937770,0.765660
8897.985425,0.906291
8898.891717,0.906291
8899.719880,0.828163
8900.548043,0.828163
8904.407594,0.781286
8905.220132,0.812537
8906.110797,0.890666
8907.017089,0.906291
8907.892129,0.875040
8908.798420,0.906291
8909.923472,1.125051
8913.751772,0.843789
8914.533058,0.781286
8915.376847,0.843789
8916.283138,0.906291
8917.236307,0.953169
8928.736833,0.734409
8929.502493,0.765660
8930.315030,0.812537
8931.127568,0.812537
8931.940105,0.812537
8932.721390,0.781286
8933.502676,0.781286
8934.362091,0.859414
8935.284008,0.921917
8936.127796,0.843789
8936.987211,0.859414
8937.877877,0.890666
8938.846671,0.968794
8939.721711,0.875040
8940.628002,0.906291
8941.503042,0.875040
8942.393708,0.890666
8943.284374,0.890666
8944.159414,0.875040
8945.034454,0.875040
8945.862617,0.828163
8946.722031,0.859414
8947.659574,0.937543
8948.581491,0.921917
8949.472157,0.890666
8950.269069,0.796911
8951.081606,0.812537
8951.925395,0.843789
8952.878563,0.953169
8953.816106,0.937543
8954.784900,0.968794
8955.753695,0.968794
8956.722489,0.968794
8957.660032,0.937543
8958.597575,0.937543
8959.472615,0.875040
8960.332029,0.859414
8961.238321,0.906291
8962.175864,0.937543
8963.129032,0.953169
8964.082201,0.953169
8965.066621,0.984420
8966.004164,0.937543
8966.957333,0.953169
8967.863624,0.906291
8976.739030,0.937543
8977.645322,0.906291
8978.489110,0.843789
8979.317273,0.828163
8980.067308,0.750034
8980.864219,0.796911
8981.645505,0.781286
8982.489294,0.843789
8983.270579,0.781286
8984.083117,0.812537
8984.942531,0.859414
8985.801945,0.859414
8986.614482,0.812537
8987.427020,0.812537
8996.161794,0.906291
8997.005583,0.843789
8997.849372,0.843789
8998.615032,0.765660
8999.349440,0.734409
9000.068223,0.718783
9000.849509,0.781286
9001.615169,0.765660
9002.333952,0.718783
9003.068361,0.734409
9003.880898,0.812537
9004.755938,0.875040
9005.646604,0.890666
9006.427889,0.781286
9007.287304,0.859414
9008.146718,0.859414
9009.037384,0.890666
9009.881172,0.843789
9010.724961,0.843789
9011.600001,0.875040
9012.443790,0.843789
9013.303204,0.859414
9014.178244,0.875040
9015.053284,0.875040
9015.881447,0.828163
9016.709610,0.828163
9017.522147,0.812537
9018.365936,0.843789
9035.210457,0.890666
9036.101123,0.890666
9036.991788,0.890666
9037.882454,0.890666
9038.726243,0.843789
9039.570031,0.843789
9040.398194,0.828163
9041.226357,0.828163
9041.976392,0.750034
9042.726426,0.750034
9043.507712,0.781286
9044.460880,0.953169
9045.492177,1.031297
9083.415788,0.718783
9084.134571,0.718783
9084.837729,0.703157
9085.509634,0.671906
9086.197166,0.687531
9087.009703,0.812537
9098.010206,0.890666
9098.963375,0.953169
9099.963421,1.000046
9100.916589,0.953169
9101.822881,0.906291
9102.713547,0.890666
9103.635464,0.921917
9104.510504,0.875040
9105.401170,0.890666
9106.354338,0.953169
9107.401261,1.046923
9108.323179,0.921917
9109.307599,0.984420
9110.323270,1.015671
9111.292064,0.968794
9112.292110,1.000046
9113.292156,1.000046
9146.606181,0.671906
9192.530158,0.906291
9193.405198,0.875040
9194.295864,0.890666
9195.217781,0.921917
9196.077195,0.859414
9196.920984,0.843789
9197.842901,0.921917
9198.858573,1.015671
9199.733613,0.875040
9200.655530,0.921917
9201.686827,1.031297
9202.639996,0.953169
9203.686919,1.046923
9204.780719,1.093800
9205.733887,0.953169
9206.671430,0.937543
9207.718353,1.046923
9208.827779,1.109426
9209.859076,1.031297
9210.968502,1.109426
9212.156056,1.187554
9213.202979,1.046923
9214.281154,1.078174
9215.390579,1.109426
9216.437502,1.046923
9217.468800,1.031297
9218.578225,1.109426
9219.765780,1.187554
9220.843954,1.078174
9221.890877,1.046923
9223.000303,1.109426
9224.125354,1.125051
9225.203529,1.078174
9226.297329,1.093800
9227.391129,1.093800
9228.469303,1.078174
9229.516226,1.046923
9230.563149,1.046923
9231.594446,1.031297
9232.500738,0.906291
9233.438281,0.937543
9234.610209,1.171929
9235.672758,1.062549
9236.672804,1.000046
9237.704101,1.031297
9238.766649,1.062549
9239.688567,0.921917
9240.610484,0.921917
9241.594904,0.984420
9242.485570,0.890666
9243.360610,0.875040
9244.266901,0.906291
9245.251321,0.984420
9246.188864,0.937543
9247.173284,0.984420
9248.157704,0.984420
9249.142124,0.984420
9250.032790,0.890666
9250.954707,0.921917
9251.954753,1.000046
9252.986050,1.031297
9253.892342,0.906291
9254.845510,0.953169
9255.829931,0.984420
9256.845602,1.015671
9257.814396,0.968794
9258.814442,1.000046
9259.830114,1.015671
9260.783282,0.953169
9261.752077,0.968794
9262.767748,1.015671
9263.783420,1.015671
9264.674085,0.890666
9265.627254,0.953169
9266.455417,0.828163
9267.252328,0.796911
9268.252374,1.000046
9269.127414,0.875040
9270.002454,0.875040
9271.002500,1.000046
9272.033797,1.031297
9272.986966,0.953169
9273.924509,0.937543
9274.877677,0.953169
9275.908975,1.031297
9276.862143,0.953169
9277.752809,0.890666
9278.643475,0.890666
9279.612269,0.968794
9280.627941,1.015671
9281.565484,0.937543
9282.503026,0.937543
9283.471821,0.968794
9284.487492,1.015671
9285.393784,0.906291
9286.331327,0.937543
9287.331372,1.000046
9288.347044,1.015671
9289.300213,0.953169
9290.269007,0.968794
9291.284678,1.015671
9292.300350,1.015671
9293.269144,0.968794
9294.175436,0.906291
9295.128604,0.953169
9296.066147,0.937543
9297.003690,0.937543
9297.863105,0.859414
9298.644390,0.781286
9299.488179,0.843789
9304.472782,1.031297
9305.535331,1.062549
9306.629131,1.093800
9307.629177,1.000046
9308.613597,0.984420
9309.644894,1.031297
9310.660565,1.015671
9311.613734,0.953169
9312.551277,0.937543
9313.551323,1.000046
9314.582620,1.031297
9315.613917,1.031297
9316.535834,0.921917
9317.457752,0.921917
9318.457797,1.000046
9319.520346,1.062549
9320.536017,1.015671
