1531298618.00
64.000000
-0.00
-0.00
-0.00
-0.00
-0.00
-0.00
-0.00
-0.00
-0.00
-0.00
0.00
0.01
0.01
-0.00
-0.03
-0.05
-0.05
0.00
0.13
0.36
0.66
1.01
1.37
1.72
2.06
2.40
2.79
3.24
3.80
4.42
5.06
5.66
6.20
6.68
7.15
7.68
8.31
9.14
10.09
11.04
11.88
12.56
13.14
13.76
14.65
15.96
17.91
20.32
22.90
25.38
27.58
29.57
31.68
34.32
37.81
42.54
48.15
54.10
59.83
64.97
69.58
74.14
79.34
85.71
93.76
103.00
112.62
121.73
129.77
136.75
143.30
150.75
157.77
166.64
177.95
191.79
206.97
220.57
228.25
225.36
208.53
176.87
132.76
80.05
23.07
-34.94
-92.44
-149.16
-205.23
-260.37
-313.74
-363.87
-409.83
-450.91
-486.50
-515.74
-537.23
-549.22
-549.96
-538.37
-514.21
-478.67
-433.88
-382.45
-327.02
-269.84
-212.63
-156.66
-102.95
-52.37
-5.90
35.58
71.43
101.35
125.50
144.38
158.69
169.15
176.37
180.75
182.57
182.07
179.51
175.23
169.65
163.18
156.15
148.81
141.30
133.69
126.02
118.33
110.69
103.16
95.80
88.68
81.83
75.25
68.95
62.95
57.25
51.86
46.78
42.03
37.59
33.45
29.61
26.07
22.81
19.83
17.11
14.67
12.48
10.54
8.83
7.35
6.07
4.97
4.05
3.27
2.62
2.09
1.65
1.30
1.01
0.79
0.61
0.47
0.37
0.29
0.23
0.20
0.17
0.16
0.16
0.17
0.19
0.21
0.24
0.28
0.32
0.36
0.40
0.45
0.49
0.54
0.59
0.64
0.70
0.76
0.82
0.89
0.97
1.05
1.15
1.25
1.37
1.50
1.65
1.82
2.00
2.21
2.44
2.69
2.97
3.27
3.61
3.98
4.38
4.81
5.29
5.82
6.39
6.99
7.61
8.22
8.84
9.47
10.14
10.88
11.71
12.63
13.64
14.69
15.77
16.84
17.94
19.05
20.20
21.33
22.34
23.10
23.41
23.09
22.01
20.15
17.56
14.36
10.71
6.65
2.26
-2.40
-7.28
-12.20
-16.88
-20.95
-24.09
-26.11
-27.07
-27.30
-27.26
-27.39
-27.90
-28.70
-29.45
-29.71
-29.23
-28.10
-26.77
-25.87
-25.95
-27.18
-29.23
-31.41
-33.02
-33.63
-33.24
-32.37
-31.67
-31.80
-33.26
-36.36
-41.10
-46.86
-52.11
-54.50
-51.55
-41.74
-25.46
-5.26
15.01
31.65
42.49
47.45
48.11
46.52
44.18
41.64
38.79
35.56
32.25
29.60
28.22
28.24
29.14
30.05
30.13
29.02
26.97
24.69
23.01
22.40
22.88
23.95
24.83
24.80
23.45
20.83
17.37
13.72
10.47
8.00
6.36
5.30
4.40
3.28
1.79
0.07
-1.53
-2.72
-3.37
-3.64
-3.93
-4.67
-6.08
-8.08
-10.39
-12.62
-14.54
-16.12
-17.45
-18.70
-19.96
-21.23
-22.52
-23.92
-25.63
-27.89
-30.75
-33.98
-36.95
-38.89
-39.02
-37.03
-33.04
-27.69
-21.83
-16.24
-11.43
-7.51
-4.39
-1.86
0.25
2.05
3.62
5.07
6.50
8.00
9.54
10.95
12.02
12.57
12.58
12.24
11.89
11.84
12.21
12.83
13.39
13.55
13.15
12.22
10.96
9.64
8.44
7.47
6.71
6.06
5.40
4.58
3.55
2.31
0.94
-0.44
-1.76
-3.06
-4.46
-6.12
-8.08
-10.26
-12.50
-14.65
-16.62
-18.45
-20.22
-22.05
-24.02
-26.22
-28.62
-31.04
-33.04
-34.04
-33.40
-30.78
-26.27
-20.40
-14.00
-7.84
-2.41
2.18
6.07
9.49
12.59
15.39
17.88
20.03
21.86
23.45
24.84
26.08
27.11
27.86
28.23
28.21
27.84
27.31
26.84
26.60
26.67
26.94
27.17
27.06
26.40
25.11
23.36
21.42
19.56
17.99
16.74
15.67
14.57
13.26
11.66
9.85
7.99
6.26
4.75
3.41
2.14
0.76
-0.86
-2.77
-4.92
-7.20
-9.45
-11.62
-13.65
-15.59
-17.50
-19.48
-21.61
-23.95
-26.55
-29.33
-32.08
-34.45
-35.92
-35.97
-34.26
-30.74
-25.76
-19.89
-13.85
-8.22
-3.35
0.70
4.04
6.94
9.62
12.27
14.96
17.66
20.27
22.64
24.59
26.03
26.96
27.47
27.74
27.90
28.05
28.22
28.37
28.50
28.60
28.66
28.58
28.22
27.42
26.07
24.27
22.26
20.38
18.92
18.02
17.54
17.21
16.70
15.76
14.36
12.59
10.67
8.78
7.03
5.45
4.00
2.61
1.20
-0.30
-1.94
-3.78
-5.82
-8.05
-10.42
-12.85
-15.29
-17.79
-20.44
-23.39
-26.71
-30.37
-34.13
-37.60
-40.26
-41.63
-41.36
-39.35
-35.76
-30.95
-25.46
-19.83
-14.61
-10.15
-6.63
-3.94
-1.84
-0.03
1.73
3.51
5.23
6.76
8.03
9.01
9.76
10.37
10.86
11.32
11.79
12.32
12.92
13.51
13.89
13.84
13.21
12.03
10.50
8.96
7.69
6.81
6.24
5.74
5.06
4.05
2.76
1.38
0.09
-1.00
-1.93
-2.85
-3.94
-5.33
-7.05
-9.03
-11.08
-13.04
-14.80
-16.34
-17.80
-19.34
-21.14
-23.31
-25.80
-28.45
-30.95
-32.89
-33.82
-33.39
-31.41
-27.98
-23.47
-18.42
-13.37
-8.72
-4.66
-1.16
1.84
4.47
6.78
8.82
10.63
12.22
13.61
14.77
15.70
16.44
17.03
17.55
18.05
18.52
18.97
19.42
19.95
20.59
21.35
22.07
22.48
22.29
21.31
19.58
17.37
15.08
13.06
11.51
10.37
9.44
8.43
7.17
5.66
4.05
2.56
1.39
0.59
0.07
-0.40
-1.07
-2.12
-3.59
-5.37
-7.26
-9.04
-10.61
-12.01
-13.41
-15.04
-17.13
-19.75
-22.82
-26.00
-28.82
-30.71
-31.15
-29.83
-26.75
-22.22
-16.80
-11.14
-5.79
-1.16
2.60
5.47
7.60
9.21
10.57
11.91
13.41
15.09
16.90
18.70
20.29
21.55
22.36
22.69
22.59
22.23
21.87
21.81
22.24
23.16
24.30
25.20
25.40
24.64
22.96
20.64
18.10
15.69
13.63
11.97
10.65
9.51
8.40
7.19
5.78
4.13
2.29
0.35
-1.55
-3.32
-4.91
-6.35
-7.69
-8.99
-10.29
-11.62
-13.05
-14.64
-16.48
-18.61
-21.03
-23.69
-26.50
-29.39
-32.21
-34.75
-36.65
-37.54
-37.06
-35.12
-31.86
-27.74
-23.28
-18.90
-14.88
-11.29
-8.13
-5.40
-3.10
-1.23
0.29
1.55
2.66
3.69
4.63
5.45
6.11
6.65
7.10
7.52
7.95
8.46
9.07
9.76
10.42
10.93
11.12
10.94
10.43
9.79
9.20
8.80
8.58
8.39
8.06
7.41
6.37
4.95
3.22
1.24
-0.90
-3.15
-5.42
-7.67
-9.88
-12.05
-14.18
-16.24
-18.14
-19.81
-21.25
-22.58
-23.96
-25.59
-27.50
-29.51
-31.22
-32.10
-31.66
-29.62
-26.05
-21.27
-15.88
-10.49
-5.59
-1.45
1.99
4.96
7.80
10.65
13.48
16.05
18.09
19.49
20.34
20.93
21.51
22.17
22.82
23.20
23.11
22.57
21.81
21.12
20.78
20.83
21.07
21.16
20.79
19.78
18.20
16.28
14.35
12.71
11.51
10.72
10.16
9.60
8.82
7.76
6.48
5.15
3.95
2.96
2.13
1.29
0.25
-1.11
-2.74
-4.52
-6.29
-7.98
-9.59
-11.24
-13.03
-15.03
-17.24
-19.60
-22.06
-24.51
-26.82
-28.77
-30.01
-30.19
-29.05
-26.56
-22.96
-18.71
-14.35
-10.32
-6.82
-3.80
-1.09
1.46
3.93
6.35
8.67
10.91
13.02
14.95
16.56
17.76
18.50
18.88
19.12
19.40
19.86
20.47
21.12
21.68
22.08
22.23
22.06
21.48
20.41
18.91
17.13
15.36
13.83
12.67
11.76
10.87
9.72
8.18
6.30
4.28
2.37
0.74
-0.62
-1.81
-3.04
-4.45
-6.11
-7.96
-9.89
-11.75
-13.45
-14.95
-16.26
-17.45
-18.63
-20.01
-21.81
-24.23
-27.29
-30.75
-34.09
-36.60
-37.62
-36.73
-33.96
-29.70
-24.59
-19.33
-14.50
-10.43
-7.23
-4.84
-3.04
-1.54
-0.09
1.50
3.32
5.31
7.32
9.19
10.73
11.86
12.54
12.85
12.98
13.14
13.55
14.32
15.36
16.39
17.03
16.94
15.98
14.27
12.13
9.99
8.19
6.88
5.97
5.24
4.43
3.42
2.22
0.98
-0.16
-1.15
-2.05
-3.04
-4.23
-5.66
-7.26
-8.91
-10.48
-11.93
-13.25
-14.46
-15.66
-16.96
-18.56
-20.59
-23.04
-25.67
-27.99
-29.39
-29.31
-27.53
-24.19
-19.78
-14.95
-10.29
-6.12
-2.52
0.63
3.47
6.08
8.43
10.53
12.39
14.10
15.79
17.50
19.14
20.56
21.57
22.15
22.40
22.55
22.83
23.34
24.01
24.67
25.06
25.00
24.42
23.33
21.87
20.16
18.38
16.67
15.18
13.96
12.97
12.08
11.06
9.75
8.09
6.16
4.16
2.31
0.70
-0.72
-2.08
-3.56
-5.20
-6.98
-8.79
-10.52
-12.13
-13.61
-14.97
-16.26
-17.55
-18.96
-20.59
-22.49
-24.56
-26.50
-27.89
-28.29
-27.44
-25.37
-22.28
-18.55
-14.55
-10.54
-6.67
-3.09
0.12
2.88
5.20
7.24
9.21
11.34
13.67
16.06
18.19
19.73
20.51
20.59
20.30
20.01
20.01
20.35
20.88
21.33
21.46
21.18
20.47
19.42
18.07
16.47
14.64
12.71
10.88
9.36
8.22
7.35
6.45
5.21
3.45
1.26
-1.08
-3.22
-4.94
-6.26
-7.40
-8.61
-10.08
-11.84
-13.77
-15.73
-17.59
-19.27
-20.81
-22.27
-23.79
-25.49
-27.46
-29.64
-31.78
-33.44
-34.15
-33.48
-31.29
-27.72
-23.20
-18.27
-13.51
-9.34
-6.05
-3.71
-2.15
-1.11
-0.17
0.98
2.51
4.38
6.35
8.11
9.40
10.15
10.47
10.57
10.69
11.00
11.55
12.28
13.10
13.83
14.31
14.37
13.93
12.96
11.56
9.88
8.08
6.33
4.73
3.31
2.11
1.07
0.12
-0.84
-1.86
-2.96
-4.06
-5.06
-5.88
-6.51
-7.02
-7.56
-8.32
-9.49
-11.16
-13.41
-16.16
-19.25
-22.43
-25.38
-27.73
-29.13
-29.24
-27.90
-25.09
-21.05
-16.24
-11.26
-6.69
-2.92
-0.04
2.12
3.87
5.51
7.24
9.08
10.92
12.63
14.08
15.23
16.10
16.77
17.34
17.87
18.41
18.94
19.42
19.79
20.01
20.06
19.97
19.76
19.44
18.98
18.32
17.42
16.26
14.87
13.31
11.64
9.93
8.19
6.52
4.98
3.66
2.57
1.63
0.66
-0.52
-1.96
-3.58
-5.18
-6.63
-7.89
-9.09
-10.44
-12.11
-14.15
-16.52
-19.13
-21.90
-24.74
-27.45
-29.71
-31.07
-31.13
-29.63
-26.60
-22.41
-17.61
-12.91
-8.89
-5.90
-4.03
-3.15
-3.07
-3.39
-3.73
-3.76
-3.31
-2.31
-0.58
2.05
5.53
9.45
13.02
15.17
14.90
11.66
5.57
-2.36
-10.91
-19.13
-26.46
-32.46
-36.56
-38.18
-37.14
-33.90
-28.98
-23.39
-18.60
-16.07
-16.39
-19.06
-22.79
-26.25
-28.62
-28.54
-25.98
-22.92
-22.80
-28.38
-40.18
-56.37
-73.83
-89.46
-98.79
-99.26
-91.02
-76.43
-57.60
-35.22
-9.31
19.47
49.70
83.10
121.92
167.19
217.60
270.09
320.13
362.01
390.01
383.15
332.31
248.38
157.07
79.61
22.32
-19.04
-50.46
-74.44
-91.17
-96.09
-87.12
-67.66
-45.17
-25.97
-11.98
-1.94
6.01
11.69
14.84
14.15
8.46
-1.62
-12.80
-20.83
-23.62
-22.87
-22.89
-26.20
-33.11
-42.12
-51.30
-59.17
-64.89
-68.45
-69.99
-69.48
-65.87
-58.63
-48.78
-38.94
-32.14
-30.39
-33.84
-40.71
-48.12
-53.03
-53.76
-50.68
-46.08
-42.97
-43.71
-48.77
-56.45
-63.27
-65.41
-60.30
-47.66
-29.40
-8.53
12.24
31.43
48.69
63.85
76.03
83.40
84.13
77.68
65.65
51.48
39.10
31.24
28.38
28.89
30.06
29.34
25.20
17.35
6.45
-6.16
-18.87
-30.01
-38.20
-42.84
-44.32
-44.00
-43.61
-44.52
-47.32
-52.03
-58.54
-67.11
-78.10
-91.21
-104.68
-115.20
-118.70
-112.02
-94.20
-67.05
-34.47
-1.11
29.11
53.75
72.02
84.30
91.65
95.30
96.61
96.88
97.29
98.69
101.47
105.34
109.48
112.74
114.02
112.65
108.56
102.33
94.89
87.26
80.23
74.28
69.62
66.20
63.85
62.23
60.95
59.61
57.90
55.73
53.24
50.67
48.21
46.02
44.10
42.51
41.30
40.64
40.55
40.85
41.06
40.47
38.36
34.34
28.60
21.88
15.24
9.65
5.47
2.31
-0.90
-5.36
-11.96
-20.81
-31.37
-42.64
-53.73
-63.91
-72.69
-79.60
-84.07
-85.53
-83.78
-79.22
-72.90
-66.21
-60.41
-56.16
-53.46
-51.76
-50.38
-48.82
-46.89
-44.67
-42.35
-40.10
-38.04
-36.26
-34.80
-33.64
-32.70
-31.83
-30.81
-29.50
-27.87
-26.00
-24.07
-22.27
-20.71
-19.45
-18.47
-17.74
-17.26
-17.05
-17.16
-17.64
-18.53
-19.79
-21.31
-22.95
-24.53
-25.91
-27.01
-27.77
-28.15
-28.11
-27.67
-26.93
-26.14
-25.58
-25.45
-25.77
-26.29
-26.65
-26.45
-25.47
-23.68
-21.24
-18.40
-15.40
-12.41
-9.57
-6.97
-4.67
-2.71
-1.11
0.14
1.06
1.66
2.02
2.24
2.46
2.80
3.28
3.80
4.11
3.87
2.85
1.05
-1.24
-3.45
-4.98
-5.35
-4.48
-2.75
-0.79
0.81
1.61
1.44
0.44
-1.12
-3.04
-5.27
-8.09
-11.74
-16.19
-21.06
-25.66
-29.16
-30.90
-30.81
-29.30
-27.35
-25.81
-24.78
-23.79
-21.93
-18.13
-11.67
-2.61
8.00
17.86
24.08
24.30
16.41
-0.58
-25.37
-54.00
-80.70
-99.48
-107.07
-103.40
-90.66
-73.86
-58.93
-49.72
-47.01
-48.83
-51.90
-54.38
-55.25
-52.58
-46.11
-37.02
-26.01
-13.05
2.59
22.04
44.84
70.28
99.34
130.58
160.01
183.87
199.63
206.76
216.18
234.33
248.93
255.54
257.23
253.81
245.03
231.25
213.28
192.13
166.98
137.40
106.03
75.01
45.50
19.23
-2.11
-17.54
-27.22
-33.64
-39.57
-45.35
-51.37
-58.47
-67.05
-77.43
-89.79
-103.42
-116.83
-126.74
-128.04
-117.35
-95.02
-64.35
-30.34
2.50
31.25
54.76
73.07
86.45
93.13
88.93
69.68
33.63
-16.18
-71.86
-122.35
-156.55
-166.50
-149.94
-110.73
-56.29
4.93
65.24
117.32
154.90
173.41
171.10
149.50
111.51
62.07
6.91
-47.46
-96.82
-137.41
-165.81
-179.71
-179.98
-174.51
-172.93
-182.55
-203.60
-234.48
-270.11
-304.00
-330.11
-345.24
-354.09
-361.53
-369.46
-373.61
-374.39
-373.27
-372.36
-371.97
-371.24
-374.01
-380.63
-386.85
-382.20
-366.01
-342.70
-319.88
-304.01
-263.25
-187.71
-92.66
-32.29
-4.26
3.76
13.13
33.53
68.96
117.72
167.62
207.55
232.85
251.19
266.06
280.45
296.21
315.21
338.28
360.53
378.99
394.85
416.81
445.91
479.69
513.93
545.03
570.46
585.59
588.05
578.55
562.83
539.26
502.55
447.71
373.46
284.56
189.62
100.59
15.62
-53.85
-100.24
-125.65
-134.70
-135.56
-131.32
-123.21
-114.68
-109.51
-109.19
-116.14
-131.88
-150.24
-161.26
-157.58
-139.57
-114.08
-89.31
-68.58
-53.97
-46.20
-43.33
-42.45
-41.85
-39.90
-36.25
-31.33
-25.26
-19.40
-15.78
-15.10
-16.98
-19.80
-21.85
-21.98
-19.23
-13.14
-4.89
1.88
2.98
-4.86
-22.40
-48.07
-78.59
-109.26
-135.44
-146.77
-136.47
-106.96
-68.34
-30.28
2.14
26.86
46.24
61.54
73.46
81.71
86.45
87.73
87.34
86.90
86.96
87.32
87.15
86.07
83.22
77.85
69.71
59.24
46.75
32.56
17.61
3.42
-7.93
-15.29
-18.78
-19.48
-18.60
-17.28
-16.16
-15.12
-13.70
-11.00
-6.27
1.33
12.56
27.70
45.30
61.87
72.63
73.34
62.41
41.97
17.36
-5.04
-20.48
-28.06
-30.90
-34.45
-43.65
-60.36
-82.28
-103.95
-118.86
-121.90
-110.71
-86.03
-51.05
-10.66
29.21
62.27
82.89
87.53
75.87
51.17
19.37
-12.84
-40.04
-59.28
-70.01
-73.49
-72.20
-69.72
-70.54
-79.11
-97.90
-125.41
-155.47
-179.14
-188.19
-178.44
-150.98
-110.62
-63.02
-12.41
38.27
85.59
124.33
148.32
153.21
139.37
112.55
81.74
55.05
36.53
25.31
17.28
7.89
-5.79
-24.09
-44.92
-64.19
-76.87
-78.71
-68.28
-48.64
-27.05
-12.43
-11.56
-25.69
-49.93
-75.84
-95.33
-103.88
-101.50
-91.18
-76.42
-59.59
-41.79
-23.79
-6.90
7.00
16.15
19.46
16.67
7.79
-7.06
-27.51
-52.05
-77.55
-99.45
-113.07
-115.36
-105.97
-87.48
-64.66
-43.46
-29.85
-28.45
-40.88
-64.23
-90.67
-109.09
-109.05
-85.21
-40.14
16.15
70.37
111.45
134.63
142.07
140.15
134.92
128.96
120.95
107.79
87.63
61.75
34.31
10.53
-5.60
-12.74
-12.12
-6.30
2.42
13.27
27.07
45.47
69.60
98.99
131.31
163.01
190.20
209.35
217.64
213.50
197.22
171.76
142.79
117.61
102.97
102.30
114.28
133.38
151.94
163.01
162.19
148.01
121.35
84.56
41.07
-4.63
-47.28
-81.86
-105.04
-116.17
-117.21
-111.50
-102.36
-92.04
-81.43
-70.60
-59.36
-47.81
-36.44
-26.04
-17.53
-11.98
-10.60
-14.49
-24.23
-39.28
-57.50
-75.12
-87.62
-91.08
-83.87
-67.63
-47.03
-28.36
-17.05
-15.43
-21.89
-31.87
-40.19
-43.59
-42.06
-38.31
-36.05
-37.91
-44.20
-52.77
-59.94
-61.66
-54.80
-38.20
-13.46
14.72
39.45
53.49
51.84
33.79
3.40
-32.00
-64.52
-88.52
-102.04
-106.58
-105.86
-104.21
-105.43
-112.02
-124.83
-142.69
-162.61
-180.39
-191.89
-194.14
-185.92
-167.33
-138.89
-101.12
-55.04
-3.24
49.54
96.98
133.20
154.86
162.29
158.80
148.79
135.72
121.32
106.18
91.02
77.65
68.73
66.56
71.73
82.59
95.76
107.50
114.95
116.88
113.63
106.63
97.62
88.02
78.61
69.50
60.29
50.38
39.30
27.02
14.08
1.54
-9.29
-17.22
-21.54
-22.34
-20.45
-17.24
-14.16
-12.36
-12.42
-14.26
-17.23
-20.37
-22.68
-23.45
-22.49
-20.22
-17.49
-15.26
-14.21
-14.46
-15.54
-16.73
-17.38
-17.27
-16.58
-15.67
-14.78
-13.77
-12.28
-10.01
-7.05
-4.04
-1.88
-1.37
-2.71
-5.45
-8.69
-11.57
-13.68
-15.17
-16.52
-18.08
-19.71
-20.63
-19.66
-15.71
-8.31
2.00
13.73
24.73
33.00
37.30
37.65
35.23
31.90
29.38
28.63
29.61
31.57
33.56
34.91
35.40
35.22
34.59
33.60
32.03
29.60
26.09
21.63
16.58
11.48
6.86
3.01
-0.01
-2.35
-4.24
-5.79
-6.94
-7.45
-7.06
-5.67
-3.49
-1.00
1.17
2.47
2.61
1.66
-0.02
-1.91
-3.51
-4.61
-5.24
-5.74
-6.48
-7.75
-9.55
-11.64
-13.65
-15.29
-16.48
-17.43
-18.54
-20.23
-22.80
-26.24
-30.30
-34.35
-37.62
-39.28
-38.68
-35.56
-30.13
-23.02
-15.14
-7.45
-0.68
4.77
8.86
11.81
14.01
15.83
17.54
19.29
21.03
22.61
23.79
24.41
24.42
23.94
23.21
22.47
21.96
21.70
21.64
21.58
21.40
20.99
20.37
19.58
18.64
17.54
16.24
14.74
13.07
11.32
9.55
7.81
6.04
4.20
2.22
0.10
-2.06
-4.12
-5.99
-7.62
-9.11
-10.66
-12.50
-14.85
-17.80
-21.21
-24.67
-27.52
-28.94
-28.26
-25.17
-19.87
-13.03
-5.67
1.26
7.00
11.22
13.95
15.49
16.25
16.61
16.86
17.16
17.55
17.96
18.34
18.60
18.74
18.80
18.82
18.83
18.82
18.79
18.72
18.60
18.37
17.88
16.95
15.41
13.26
10.62
7.79
5.03
2.49
0.10
-2.32
-4.95
-7.84
-10.85
-13.81
-16.54
-19.03
-21.40
-23.83
-26.47
-29.43
-32.72
-36.33
-40.19
-44.03
-47.43
-49.77
-50.41
-48.92
-45.28
-40.01
-33.95
-28.08
-23.03
-19.05
-15.86
-12.98
-9.97
-6.71
-3.43
-0.53
1.63
2.91
3.41
3.37
3.06
2.70
2.48
2.59
3.22
4.51
6.45
8.86
11.50
14.14
16.73
19.32
22.06
25.08
28.40
31.94
35.54
39.00
42.08
44.46
45.83
45.93
44.66
42.16
38.81
35.03
31.14
27.26
23.37
19.38
15.27
11.12
6.99
2.81
-1.67
-6.69
-12.27
-17.96
-22.91
-26.09
-26.77
-24.86
-20.89
-15.82
-10.53
-5.57
-1.01
3.29
7.45
11.35
14.65
17.01
18.30
18.71
18.60
18.37
18.19
18.06
17.80
17.26
16.38
15.27
14.10
13.04
12.18
11.54
11.03
10.47
9.69
8.57
7.06
5.31
3.51
1.90
0.64
-0.24
-0.80
-1.22
-1.76
-2.67
-4.11
-6.14
-8.55
-10.99
-13.02
-14.31
-14.82
-14.85
-14.94
-15.67
-17.42
-20.25
-23.83
-27.55
-30.70
-32.64
-32.90
-31.32
-28.00
-23.33
-17.89
-12.33
-7.26
-3.05
0.21
2.65
4.52
6.08
7.40
8.46
9.16
9.46
9.43
9.22
9.00
8.85
8.80
8.83
8.91
9.02
9.17
9.35
9.54
9.70
9.73
9.59
9.20
8.56
7.72
6.75
5.70
4.56
3.31
1.85
0.16
-1.80
-3.95
-6.20
-8.41
-10.43
-12.12
-13.41
-14.32
-15.10
-16.13
-17.77
-20.28
-23.59
-27.28
-30.69
-33.04
-33.69
-32.26
-28.79
-23.65
-17.50
-11.05
-4.90
0.52
5.02
8.58
11.30
13.27
14.64
15.52
16.03
16.25
16.22
15.91
15.32
14.47
13.39
12.14
10.77
9.31
7.78
6.24
4.82
3.66
2.87
2.42
2.13
1.65
0.67
-1.01
-3.30
-5.93
-8.48
-10.65
-12.30
-13.54
-14.57
-15.60
-16.74
-18.01
-19.36
-20.74
-22.17
-23.70
-25.36
-27.15
-28.98
-30.81
-32.51
-33.92
-34.74
-34.56
-32.92
-29.53
-24.41
-17.96
-10.90
-4.03
1.98
6.81
10.45
13.11
15.07
16.54
17.69
18.60
19.35
19.96
20.40
20.57
20.39
19.81
18.85
17.67
16.45
15.42
14.67
14.24
14.07
14.01
13.85
13.41
12.53
11.14
9.34
7.29
5.23
3.37
1.83
0.61
-0.38
-1.30
-2.28
-3.37
-4.58
-5.86
-7.18
-8.51
-9.86
-11.20
-12.55
-13.89
-15.31
-16.95
-19.00
-21.54
-24.49
-27.46
-29.84
-30.94
-30.24
-27.56
-23.17
-17.70
-11.92
-6.54
-2.00
1.53
4.16
6.10
7.58
8.75
9.66
10.35
10.88
11.34
11.82
12.37
12.95
13.47
13.80
13.93
13.94
13.97
14.18
14.57
15.04
15.36
15.35
14.88
14.00
12.77
11.32
9.72
8.05
6.44
5.04
4.01
3.38
3.02
2.66
1.96
0.73
-1.04
-3.11
-5.16
-6.92
-8.33
-9.48
-10.59
-11.94
-13.71
-15.96
-18.61
-21.38
-23.79
-25.28
-25.27
-23.44
-19.80
-14.80
-9.18
-3.70
1.01
4.65
7.24
9.01
10.27
11.27
12.20
13.06
13.78
14.25
14.34
14.05
13.45
12.72
12.05
11.55
11.23
11.02
10.81
10.48
9.98
9.28
8.34
7.14
5.68
3.97
2.08
0.13
-1.75
-3.48
-5.01
-6.36
-7.63
-8.93
-10.33
-11.80
-13.26
-14.55
-15.57
-16.27
-16.71
-17.05
-17.50
-18.30
-19.59
-21.35
-23.28
-24.89
-25.56
-24.73
-22.12
-17.85
-12.43
-6.51
-0.76
4.41
8.81
12.45
15.34
17.46
18.71
19.10
18.77
18.09
17.53
17.41
17.80
18.45
18.99
19.11
18.81
18.30
17.92
17.85
18.03
18.21
18.03
17.35
16.18
14.78
13.40
12.17
11.04
9.77
8.15
6.06
3.56
0.87
-1.77
-4.19
-6.31
-8.17
-9.82
-11.30
-12.70
-14.12
-15.82
-18.04
-20.92
-24.38
-27.94
-30.85
-32.35
-31.91
-29.40
-25.17
-19.80
-13.98
-8.28
-3.07
1.44
5.15
8.02
10.10
11.57
12.69
13.77
15.11
16.84
18.89
21.05
22.92
24.20
24.68
24.40
23.61
22.68
21.91
21.44
21.13
20.68
19.80
18.34
16.36
14.13
11.92
9.84
7.86
5.81
3.53
0.94
-1.96
-5.15
-8.66
-12.55
-16.75
-21.03
-25.01
-28.40
-31.11
-33.40
-35.65
-38.17
-40.86
-43.19
-44.37
-43.65
-40.69
-35.63
-28.99
-21.42
-13.47
-5.43
2.64
10.70
18.60
25.95
32.22
36.84
39.49
40.18
39.27
37.34
35.01
32.78
30.90
29.45
28.33
27.41
26.48
25.43
24.24
23.01
21.94
21.26
21.08
21.29
21.56
21.39
20.42
18.52
15.96
13.28
11.10
9.94
10.12
11.66
14.24
17.01
18.70
17.76
12.90
3.78
-8.71
-22.57
-35.38
-45.26
-51.51
-54.78
-56.41
-57.65
-58.97
-59.86
-59.30
-56.34
-50.73
-43.03
-34.43
-26.26
-19.58
-14.95
-12.31
-11.13
-10.52
-9.48
-7.08
-2.80
3.27
10.47
17.70
23.93
28.52
31.41
32.93
33.56
33.57
33.05
32.00
30.55
29.06
27.90
27.29
27.03
26.63
25.53
23.39
20.25
16.48
12.58
8.97
5.89
3.43
1.57
0.25
-0.64
-1.25
-1.84
-2.64
-3.84
-5.48
-7.47
-9.56
-11.52
-13.22
-14.72
-16.28
-18.22
-20.80
-23.98
-27.39
-30.35
-32.15
-32.19
-30.24
-26.49
-21.45
-15.82
-10.31
-5.43
-1.47
1.58
3.91
5.81
7.54
9.24
10.83
12.08
12.65
12.32
11.01
8.95
6.63
4.60
3.31
2.93
3.28
3.98
4.60
4.91
4.85
4.54
4.10
3.59
2.98
2.33
1.78
1.65
2.25
3.75
5.95
8.42
10.52
11.75
11.91
11.11
9.74
8.21
6.83
5.67
4.64
3.55
2.24
0.61
-1.39
-3.75
-6.45
-9.42
-12.59
-15.71
-18.40
-20.08
-20.16
-18.29
-14.55
-9.55
-4.21
0.56
4.20
6.63
8.14
9.15
9.89
10.41
10.63
10.52
10.25
10.08
10.24
10.79
11.56
12.22
12.45
12.11
11.27
10.23
9.37
8.98
9.14
9.67
10.28
10.72
10.88
10.83
10.73
10.65
10.55
10.32
9.87
9.22
8.48
7.75
7.03
6.19
5.03
3.43
1.36
-1.10
-3.85
-6.83
-10.07
-13.59
-17.37
-21.32
-25.29
-29.08
-32.47
-35.23
-37.03
-37.52
-36.36
-33.42
-28.87
-23.22
-17.30
-11.89
-7.54
-4.37
-2.09
-0.23
1.59
3.44
5.09
6.24
6.80
7.04
7.57
9.10
12.18
17.01
23.41
30.86
38.43
44.81
48.44
47.87
42.33
32.21
19.19
5.75
-5.67
-13.48
-17.35
-18.01
-16.66
-14.45
-12.15
-10.24
-9.05
-8.90
-9.90
-11.82
-14.06
-15.77
-16.22
-15.14
-12.79
-9.92
-7.38
-5.81
-5.45
-6.13
-7.45
-9.01
-10.56
-12.02
-13.38
-14.59
-15.46
-15.78
-15.46
-14.57
-13.37
-12.15
-10.99
-9.69
-7.86
-5.12
-1.28
3.46
8.62
13.53
17.61
20.50
22.13
22.64
22.35
21.59
20.69
19.84
19.15
18.61
18.15
17.73
17.33
17.01
16.76
16.54
16.23
15.73
15.02
14.11
13.01
11.63
9.74
7.07
3.47
-0.95
-5.76
-10.34
-14.08
-16.55
-17.64
-17.48
-16.33
-14.50
-12.20
-9.64
-6.95
-4.26
-1.66
0.72
2.74
4.20
4.90
4.63
3.29
0.98
-1.99
-5.09
-7.67
-9.15
-9.13
-7.49
-4.42
-0.38
4.02
8.14
11.47
13.70
14.71
14.62
13.64
12.07
10.16
8.15
6.19
4.33
2.59
0.92
-0.70
-2.26
-3.64
-4.69
-5.23
-5.19
-4.63
-3.74
-2.84
-2.23
-2.16
-2.72
-3.85
-5.35
-6.95
-8.44
-9.73
-10.81
-11.81
-12.83
-13.93
-15.08
-16.20
-17.20
-18.07
-18.93
-19.93
-21.24
-22.90
-24.81
-26.77
-28.51
-29.89
-30.85
-31.54
-32.16
-32.89
-33.86
-35.09
-36.47
-37.82
-38.87
-39.32
-38.85
-37.22
-34.36
-30.42
-25.80
-20.99
-16.45
-12.46
-9.06
-6.11
-3.42
-0.91
1.38
3.27
4.64
5.49
6.00
6.42
6.94
7.63
8.39
9.07
9.56
9.89
10.17
10.51
10.98
11.46
11.77
11.70
11.11
10.01
8.53
6.94
5.51
4.47
3.89
3.69
3.67
3.60
3.25
2.54
1.43
-0.01
-1.74
-3.65
-5.64
-7.60
-9.42
-11.07
-12.63
-14.21
-15.94
-17.89
-20.07
-22.47
-25.11
-28.04
-31.26
-34.59
-37.72
-40.19
-41.56
-41.58
-40.28
-37.95
-34.98
-31.74
-28.41
-24.96
-21.35
-17.65
-14.30
-12.11
-12.14
-15.32
-22.15
-32.31
-44.47
-56.38
-65.19
-67.92
-62.18
-46.81
-22.37
8.66
42.17
73.17
96.93
110.14
111.71
103.07
87.58
69.58
53.05
40.76
33.78
31.69
33.05
36.02
38.78
39.88
38.33
33.91
27.26
19.77
13.22
9.06
7.78
8.67
10.11
10.38
8.44
4.42
-0.55
-4.94
-7.55
-7.91
-6.33
-3.47
-0.07
3.21
5.79
7.04
6.49
4.04
0.30
-3.53
-6.10
-6.40
-4.28
-0.40
4.09
8.10
11.04
12.86
13.88
14.49
14.90
15.11
15.04
14.58
13.74
12.58
11.23
9.80
8.37
7.00
5.69
4.50
3.54
3.05
3.27
4.33
6.08
8.06
9.64
10.22
9.46
7.44
4.62
1.63
-0.96
-2.81
-3.89
-4.37
-4.56
-4.76
-5.17
-5.86
-6.79
-7.80
-8.70
-9.30
-9.50
-9.34
-8.99
-8.71
-8.82
-9.56
-11.10
-13.45
-16.44
-19.74
-22.88
-25.26
-26.30
-25.55
-22.82
-18.35
-12.75
-6.86
-1.59
2.44
5.02
6.43
7.25
8.10
9.38
11.15
13.23
15.29
17.08
18.43
19.24
19.42
18.87
17.65
16.04
14.55
13.78
14.15
15.70
18.03
20.48
22.31
22.97
22.16
19.85
16.30
12.03
7.78
4.38
2.55
2.62
4.50
7.62
11.11
13.99
15.39
14.72
11.74
6.70
0.25
-6.64
-12.91
-17.71
-20.56
-21.49
-20.92
-19.48
-17.83
-16.54
-15.94
-16.16
-17.03
-18.05
-18.61
-18.10
-16.26
-13.22
-9.53
-5.85
-2.70
-0.23
1.69
3.26
4.57
5.42
5.53
4.70
3.04
0.96
-0.93
-2.12
-2.38
-1.76
-0.59
0.73
1.86
2.65
3.11
3.41
3.78
4.41
5.40
6.73
8.31
9.95
11.45
12.56
13.11
13.05
12.47
11.60
10.72
10.09
9.84
9.96
10.38
10.99
11.67
12.29
12.75
12.92
12.80
12.52
12.30
12.36
12.75
13.27
13.58
13.39
12.68
11.81
11.46
12.38
15.07
19.53
25.19
31.13
36.32
40.05
42.14
42.90
43.08
43.39
44.30
45.77
47.36
48.39
48.34
47.13
45.13
42.91
40.86
38.80
35.86
30.79
22.33
9.68
-7.25
-27.73
-50.12
-71.81
-89.35
-99.05
-98.12
-85.95
-64.87
-39.70
-16.26
0.77
9.34
10.39
6.75
1.52
-3.18
-6.67
-9.11
-10.73
-11.39
-10.74
-8.68
-5.83
-3.41
-2.83
-4.93
-9.62
-15.94
-22.44
-27.96
-32.08
-35.39
-38.99
-43.98
-50.67
-58.33
-65.36
-69.80
-70.10
-65.61
-56.79
-44.94
-31.73
-18.71
-7.00
2.73
10.15
15.11
17.72
18.34
17.72
16.92
17.10
19.10
23.22
29.04
35.48
41.02
44.12
43.60
39.23
31.91
23.24
14.99
8.51
4.32
2.19
1.37
0.84
-0.02
-1.44
-3.77
-7.46
-12.82
-19.73
-27.42
-34.77
-41.12
-46.10
-49.84
-53.34
-57.60
-62.96
-68.84
-73.91
-76.67
-76.50
-72.96
-65.85
-55.88
-43.53
-28.96
-12.28
6.13
28.34
52.06
72.82
87.34
94.59
96.52
96.16
95.80
96.38
97.36
96.83
93.13
85.28
71.91
51.75
24.69
-7.97
-43.15
-75.99
-101.14
-113.91
-105.67
-79.97
-46.60
-16.24
3.98
12.47
12.27
8.13
4.12
2.11
0.89
-0.59
-2.42
-3.84
-4.12
-3.17
-1.54
0.15
1.49
1.77
1.30
0.90
1.11
2.09
3.54
5.28
7.54
10.89
15.81
23.69
36.37
54.95
79.03
105.50
129.05
143.85
146.00
135.41
116.53
95.99
80.91
74.27
74.34
76.43
76.36
72.13
64.20
54.55
45.15
36.63
28.69
21.10
14.55
10.62
11.02
17.02
28.69
44.93
63.39
81.74
98.43
113.08
126.33
139.21
152.64
167.02
182.22
197.00
210.30
221.52
230.55
237.52
242.35
244.24
241.15
235.46
226.92
214.95
199.19
179.76
157.26
132.58
106.75
80.74
55.45
30.92
7.34
-14.96
-35.55
-53.93
-69.73
-82.85
-93.50
-102.20
-110.27
-118.74
-128.26
-138.90
-150.19
-161.33
-171.54
-180.30
-187.52
-193.86
-199.98
-206.30
-212.82
-219.13
-224.62
-228.87
-231.86
-234.08
-236.59
-240.60
-247.35
-257.93
-272.91
-291.74
-312.41
-331.39
-344.46
-348.14
-340.89
-323.79
-300.03
-273.61
-247.87
-224.64
-204.32
-186.63
-171.45
-159.08
-149.95
-143.98
-140.38
-137.79
-134.94
-131.34
-127.45
-124.54
-124.03
-126.75
-132.57
-140.45
-149.00
-157.02
-164.08
-170.64
-177.86
-187.13
-199.75
-216.51
-237.39
-261.19
-285.37
-306.31
-320.02
-323.38
-315.20
-296.62
-270.70
-241.22
-211.42
-183.18
-157.08
-133.01
-110.87
-90.88
-73.43
-58.67
-46.34
-35.70
-26.06
-17.12
-9.07
-2.53
1.87
3.84
3.62
1.97
-0.11
-1.72
-2.26
-1.64
-0.07
2.06
4.48
7.14
10.17
13.84
18.25
23.31
28.69
33.92
38.56
42.31
45.13
47.17
48.69
49.89
50.89
51.63
51.99
51.87
51.25
50.24
49.09
48.06
47.42
47.32
47.81
48.87
50.54
52.91
56.22
60.75
66.72
74.18
82.89
92.37
102.01
111.28
119.92
128.01
135.90
143.98
152.43
161.03
169.25
176.43
182.10
186.34
189.80
193.51
198.50
205.36
213.97
223.61
233.27
242.12
249.93
257.05
264.38
273.09
284.47
299.69
319.34
342.73
367.43
389.21
403.01
404.59
392.29
368.06
336.98
305.40
278.59
259.09
246.38
237.92
230.81
222.92
213.17
201.03
185.95
167.36
145.17
120.50
95.74
73.98
57.69
47.63
42.50
39.55
35.77
29.09
18.95
6.28
-7.12
-19.36
-29.25
-36.50
-41.72
-45.82
-49.61
-53.20
-56.10
-57.53
-57.02
-54.86
-52.06
-49.96
-49.70
-51.80
-56.10
-62.10
-69.14
-76.62
-83.79
-89.62
-92.84
-92.11
-86.44
-75.54
-60.03
-41.29
-21.17
-1.53
16.14
30.86
42.29
50.47
55.64
58.05
57.91
55.47
51.07
45.24
38.48
31.10
23.01
13.87
3.39
-8.16
-19.78
-29.82
-36.59
-39.00
-37.00
-31.50
-23.99
-15.90
-8.21
-1.38
4.46
9.31
13.13
15.85
17.45
17.90
17.28
15.70
13.43
10.93
8.76
7.44
7.18
7.77
8.67
9.18
8.75
7.14
4.37
0.72
-3.46
-7.74
-11.70
-15.01
-17.55
-19.46
-21.12
-22.89
-24.89
-26.88
-28.39
-28.96
-28.46
-27.12
-25.36
-23.55
-21.77
-19.91
-17.86
-15.74
-14.01
-13.26
-13.93
-15.99
-18.95
-21.99
-24.22
-24.86
-23.39
-19.53
-13.34
-5.21
4.12
13.63
22.32
29.42
34.53
37.64
38.94
38.60
36.79
33.75
29.91
25.88
22.26
19.46
17.48
16.00
14.66
13.33
12.19
11.62
11.93
13.06
14.59
15.83
16.13
15.06
12.50
8.63
3.91
-1.02
-5.38
-8.43
-9.61
-8.79
-6.31
-2.95
0.30
2.53
3.21
2.34
0.35
-2.01
-4.02
-5.20
-5.49
-5.17
-4.79
-4.94
-6.23
-9.04
-13.52
-19.34
-25.64
-31.13
-34.46
-34.75
-31.88
-26.63
-20.34
-14.36
-9.62
-6.42
-4.52
-3.46
-2.76
-2.10
-1.29
-0.24
1.05
2.38
3.43
3.77
3.04
1.13
-1.75
-5.12
-8.33
-10.79
-12.13
-12.34
-11.73
-10.79
-9.93
-9.38
-9.13
-8.99
-8.71
-8.12
-7.15
-5.83
-4.30
-2.84
-1.79
-1.55
-2.40
-4.44
-7.48
-11.08
-14.73
-17.91
-20.28
-21.59
-21.76
-20.77
-18.71
-15.77
-12.34
-8.99
-6.38
-5.12
-5.53
-7.46
-10.16
-12.42
-12.94
-10.86
-6.10
0.50
7.50
13.40
17.20
18.65
18.21
16.72
14.98
13.47
12.32
11.44
10.75
10.22
9.92
9.94
10.26
10.70
10.97
10.86
10.22
9.15
7.89
6.76
6.01
5.75
5.94
6.30
6.54
6.35
5.56
4.25
2.69
1.27
0.32
-0.01
0.14
0.48
0.65
0.48
0.02
-0.50
-0.84
-0.84
-0.58
-0.29
-0.19
-0.35
-0.57
-0.50
0.28
1.99
4.63
8.01
11.96
16.46
21.69
27.73
34.33
40.74
45.82
48.59
48.77
47.17
45.54
45.87
49.55
56.72
66.31
76.55
85.70
92.61
96.77
97.99
96.09
90.82
82.12
70.55
57.31
43.88
31.39
19.95
8.46
-4.69
-20.75
-39.68
-59.95
-78.99
-94.16
-103.86
-107.99
-107.71
-104.82
-100.92
-97.00
-93.39
-89.89
-86.08
-81.54
-75.82
-68.75
-60.58
-52.16
-44.61
-38.61
-33.87
-29.06
-22.67
-14.09
-4.35
4.14
8.74
8.13
3.08
-3.88
-9.71
-12.32
-11.24
-7.55
-3.05
0.35
1.48
-0.00
-3.40
-7.10
-8.94
-7.01
-0.54
9.31
19.09
24.53
22.14
11.02
-6.47
-25.68
-41.64
-50.74
-51.72
-46.30
-37.53
-28.93
-23.96
-26.07
-38.49
-62.63
-95.69
-129.45
-153.72
-158.88
-140.73
-102.76
-54.90
-9.22
25.65
48.04
64.61
81.61
103.74
129.93
154.52
172.43
182.52
187.51
191.18
196.57
198.85
192.44
174.26
145.66
111.25
75.92
42.21
9.04
-22.92
-59.77
-106.69
-165.37
-233.23
-305.18
-376.74
-445.67
-511.89
-551.85
-552.71
-516.26
-458.50
-397.46
-342.27
-291.61
-238.47
-176.24
-103.07
-27.68
38.08
84.99
110.63
119.22
118.26
114.78
113.00
113.97
113.43
107.89
97.04
83.90
72.37
64.81
61.06
59.46
57.97
53.51
44.72
32.52
19.49
8.20
-0.04
-5.50
-9.30
-12.49
-16.46
-21.53
-26.76
-30.46
-31.12
-28.17
-22.04
-14.17
-5.34
3.37
11.28
18.20
24.26
29.62
34.14
37.44
39.17
39.10
37.19
33.59
28.65
22.76
16.21
9.11
1.47
-6.58
-14.88
-23.40
-32.03
-40.71
-49.38
-58.03
-66.70
-75.50
-84.22
-92.71
-100.89
-108.71
-116.11
-123.05
-129.49
-135.47
-141.10
-146.04
-150.04
-152.90
-154.41
-154.30
-152.18
-147.50
-139.36
-129.79
-119.61
-109.36
-99.39
-89.91
-81.05
-72.87
-65.47
-58.95
-53.54
-48.92
-44.86
-41.11
-37.40
-33.51
-29.30
-24.83
-20.31
-16.08
-12.11
-8.32
-4.47
-0.21
4.84
10.93
18.05
25.96
34.22
42.70
51.41
60.64
70.86
82.52
95.80
110.46
125.92
141.53
157.02
172.45
188.27
204.95
222.75
241.65
261.59
282.72
305.41
329.75
354.91
378.77
398.23
410.20
412.81
406.09
391.97
373.41
353.50
334.67
318.64
306.40
298.43
294.55
293.63
293.52
291.43
284.88
272.75
255.95
237.47
221.79
213.44
215.11
225.93
240.85
251.60
249.24
227.18
183.36
120.58
44.74
-37.72
-121.65
-203.35
-279.37
-345.20
-395.50
-425.89
-435.17
-426.45
-406.23
-381.66
-357.84
-336.46
-315.92
-293.52
-267.43
-237.72
-206.17
-175.21
-146.82
-121.80
-99.78
-78.92
-57.41
-34.47
-11.05
10.25
26.12
34.16
33.88
27.14
18.14
10.73
7.01
7.01
9.75
14.68
22.66
35.17
52.86
75.34
99.14
118.70
128.72
126.80
114.72
97.70
81.73
65.47
47.68
26.18
-0.64
-32.76
-69.10
-108.88
-152.03
-196.89
-243.31
-287.53
-323.72
-346.25
-352.34
-343.53
-325.34
-302.95
-283.50
-272.14
-268.72
-269.62
-270.46
-268.30
-262.23
-252.39
-238.84
-222.12
-202.62
-180.19
-155.21
-128.58
-101.43
-74.54
-48.14
-22.17
3.24
27.97
52.27
76.24
99.76
122.73
145.34
168.28
192.67
219.33
248.32
278.27
305.87
326.51
335.97
332.22
316.30
291.88
263.40
234.36
206.12
178.15
149.41
119.85
91.19
66.24
47.51
35.89
30.39
28.84
29.08
29.82
30.79
32.20
33.83
34.69
33.32
28.66
20.77
10.97
1.25
-6.68
-12.03
-15.09
-16.83
-18.30
-20.15
-22.54
-25.28
-28.11
-30.77
-32.97
-34.33
-34.49
-33.22
-30.62
-27.12
-23.36
-19.93
-17.17
-15.17
-13.85
-13.13
-12.95
-13.35
-14.27
-15.59
-17.09
-18.64
-20.18
-21.72
-23.23
-24.47
-25.11
-24.90
-23.75
-21.91
-19.82
-17.91
-16.42
-15.31
-14.43
-13.59
-12.67
-11.63
-10.48
-9.25
-8.01
-6.81
-5.67
-4.55
-3.28
-1.73
0.22
2.47
4.80
6.89
8.48
9.39
9.57
9.02
7.75
5.82
3.32
0.52
-2.15
-4.12
-4.82
-3.91
-1.37
2.31
6.34
9.74
11.78
12.03
10.53
7.68
4.05
0.21
-3.43
-6.57
-9.11
-11.09
-12.70
-14.25
-16.06
-18.24
-20.55
-22.44
-23.16
-22.21
-19.53
-15.59
-11.17
-6.98
-3.38
-0.41
2.10
4.18
5.63
6.10
5.36
3.49
0.96
-1.55
-3.39
-4.26
-4.16
-3.35
-2.19
-1.01
-0.06
0.42
0.20
-0.81
-2.56
-4.62
-6.30
-6.79
-5.60
-2.73
1.06
4.59
6.61
6.32
3.67
-0.68
-5.73
-10.47
-14.22
-16.64
-17.59
-17.04
-15.04
-11.85
-8.09
-4.65
-2.43
-1.85
-2.64
-3.93
-4.64
-4.08
-2.17
0.56
3.39
5.80
7.74
9.51
11.42
13.55
15.69
17.48
18.64
19.13
19.19
19.06
18.99
19.04
19.16
19.28
19.39
19.50
19.68
19.98
20.35
20.65
20.75
20.51
19.90
18.95
17.75
16.36
14.75
12.81
10.51
8.02
5.82
4.71
5.67
9.38
15.87
24.36
33.48
41.74
48.01
51.79
53.32
53.36
53.03
53.50
55.80
60.46
67.30
75.10
81.73
84.56
81.30
70.91
54.18
33.65
12.81
-5.04
-17.85
-25.25
-28.27
-28.62
-27.77
-26.39
-24.51
-21.98
-19.00
-16.41
-15.34
-16.66
-20.44
-25.80
-31.28
-35.48
-37.62
-37.88
-37.09
-36.34
-36.27
-36.98
-38.02
-38.88
-39.39
-39.87
-40.98
-43.40
-47.44
-52.99
-59.59
-66.56
-73.18
-78.78
-82.76
-84.73
-84.52
-82.10
-77.55
-70.98
-62.46
-52.18
-40.46
-27.93
-15.45
-3.94
5.78
13.16
17.95
20.22
20.28
18.62
15.88
12.68
9.56
6.84
4.61
2.78
1.22
-0.19
-1.49
-2.65
-3.64
-4.44
-5.05
-5.47
-5.63
-5.40
-4.70
-3.57
-2.22
-0.98
-0.16
0.13
0.04
-0.19
-0.46
-0.88
-1.77
-3.43
-5.77
-8.31
-10.22
-10.70
-9.37
-6.42
-2.45
1.76
5.59
8.81
11.43
13.56
15.30
16.66
17.63
18.28
18.70
19.03
19.28
19.31
18.96
18.06
16.67
15.04
13.53
12.43
11.76
11.32
10.76
9.80
8.41
6.78
5.23
4.02
3.18
2.46
1.50
-0.05
-2.35
-5.34
-8.80
-12.42
-15.89
-18.90
-21.25
-22.87
-23.91
-24.65
-25.44
-26.43
-27.43
-27.88
-27.10
-24.61
-20.38
-14.90
-9.04
-3.69
0.54
3.49
5.32
6.39
7.06
7.64
8.27
9.06
10.04
11.15
12.27
13.21
13.82
14.04
13.96
13.78
13.72
13.85
14.18
14.55
14.80
14.80
14.49
13.83
12.84
11.58
10.09
8.36
6.38
4.16
1.81
-0.47
-2.46
-3.98
-5.05
-5.87
-6.73
-7.81
-9.13
-10.60
-12.11
-13.67
-15.37
-17.25
-19.05
-20.26
-20.25
-18.57
-15.22
-10.69
-5.76
-1.21
2.46
5.20
7.25
8.93
10.45
11.79
12.78
13.29
13.33
13.12
12.98
13.17
13.72
14.39
14.86
14.84
14.31
13.41
12.44
11.65
11.12
10.78
10.48
10.07
9.45
8.54
7.29
5.73
3.99
2.34
1.11
0.47
0.36
0.44
0.27
-0.43
-1.64
-3.07
-4.37
-5.38
-6.21
-7.15
-8.52
-10.43
-12.78
-15.34
-17.88
-20.25
-22.30
-23.82
-24.48
-23.93
-21.99
-18.72
-14.54
-10.03
-5.75
-2.08
0.83
3.04
4.62
5.67
6.30
6.63
6.90
7.31
7.95
8.80
9.69
10.47
11.13
11.78
12.57
13.53
14.45
15.00
14.90
14.08
12.77
11.35
10.18
9.36
8.74
8.07
7.17
6.09
5.06
4.31
3.85
3.50
2.90
1.82
0.26
-1.52
-3.16
-4.42
-5.28
-5.97
-6.82
-8.09
-9.86
-11.97
-14.13
-16.01
-17.39
-18.31
-19.01
-19.80
-20.91
-22.28
-23.56
-24.20
-23.75
-22.01
-19.10
-15.36
-11.19
-7.00
-3.08
0.33
3.07
5.10
6.50
7.42
8.03
8.44
8.68
8.74
8.70
8.70
8.91
9.40
10.10
10.84
11.43
11.77
11.89
11.93
11.98
12.11
12.31
12.50
12.59
12.49
12.14
11.45
10.38
8.90
7.07
5.02
2.91
0.95
-0.66
-1.78
-2.40
-2.67
-2.87
-3.37
-4.48
-6.29
-8.62
-11.12
-13.41
-15.22
-16.45
-17.13
-17.33
-17.04
-16.29
-15.16
-13.92
-12.94
-12.55
-12.83
-13.53
-14.24
-14.52
-14.16
-13.25
-12.02
-10.68
-9.29
-7.75
-5.95
-3.91
-1.83
-0.00
1.33
2.10
2.45
2.65
2.99
3.66
4.68
5.95
7.28
8.43
9.24
9.61
9.57
9.23
8.75
8.28
7.88
7.47
6.94
6.23
5.38
4.58
4.10
4.10
4.53
5.06
5.24
4.72
3.44
1.69
0.02
-1.07
-1.35
-0.98
-0.46
-0.31
-0.91
-2.30
-4.23
-6.30
-8.16
-9.69
-10.92
-12.03
-13.20
-14.60
-16.28
-18.24
-20.36
-22.38
-23.92
-24.46
-23.60
-21.18
-17.43
-12.92
-8.38
-4.44
-1.51
0.42
1.60
2.42
3.19
4.08
5.07
6.08
6.99
7.76
8.39
8.92
9.36
9.71
9.98
10.20
10.45
10.80
11.29
11.87
12.42
12.84
13.04
13.00
12.68
12.03
11.03
9.68
8.15
6.69
5.55
4.91
4.75
4.85
4.95
4.78
4.20
3.24
2.02
0.73
-0.46
-1.48
-2.31
-3.02
-3.68
-4.39
-5.19
-6.10
-7.12
-8.19
-9.24
-10.18
-10.99
-11.77
-12.71
-14.04
-15.87
-18.04
-20.10
-21.47
-21.62
-20.33
-17.75
-14.30
-10.48
-6.69
-3.25
-0.31
2.05
3.79
4.95
5.63
6.01
6.33
6.74
7.34
8.13
9.03
9.89
10.52
10.75
10.52
9.95
9.24
8.67
8.42
8.47
8.68
8.85
8.83
8.53
7.99
7.23
6.33
5.40
4.57
4.01
3.83
3.99
4.31
4.50
4.37
3.86
3.13
2.43
1.92
1.58
1.25
0.68
-0.21
-1.36
-2.54
-3.53
-4.22
-4.73
-5.29
-6.12
-7.34
-8.93
-10.79
-12.85
-15.05
-17.36
-19.66
-21.74
-23.24
-23.80
-23.18
-21.33
-18.42
-14.85
-11.05
-7.43
-4.28
-1.71
0.30
1.84
3.01
3.94
4.72
5.45
6.18
6.96
7.81
8.70
9.63
10.59
11.53
12.42
13.20
13.81
14.26
14.51
14.51
14.16
13.35
12.03
10.32
8.51
6.97
5.97
5.58
5.60
5.67
5.42
4.59
3.18
1.43
-0.39
-2.01
-3.29
-4.19
-4.74
-4.98
-4.94
-4.69
-4.39
-4.28
-4.57
-5.38
-6.60
-7.98
-9.22
-10.17
-10.89
-11.63
-12.68
-14.23
-16.32
-18.72
-21.06
-22.85
-23.63
-23.07
-21.09
-17.91
-14.00
-9.92
-6.20
-3.13
-0.76
1.05
2.49
3.72
4.80
5.74
6.51
7.15
7.70
8.19
8.69
9.18
9.67
10.11
10.53
10.89
11.20
11.46
11.69
11.95
12.25
12.61
12.96
13.20
13.22
12.98
12.50
11.91
11.34
10.89
10.56
10.24
9.80
9.19
8.40
7.49
6.49
5.40
4.11
2.61
0.98
-0.56
-1.80
-2.62
-3.24
-4.04
-5.41
-7.46
-9.93
-12.28
-14.02
-14.96
-15.34
-15.72
-16.64
-18.39
-20.84
-23.48
-25.68
-26.86
-26.70
-25.17
-22.45
-18.87
-14.82
-10.64
-6.66
-3.13
-0.22
1.97
3.51
4.55
5.33
6.10
7.02
8.13
9.33
10.45
11.34
11.87
12.05
11.95
11.71
11.48
11.42
11.59
12.01
12.55
13.01
13.15
12.75
11.75
10.29
8.67
7.22
6.14
5.44
4.95
4.38
3.57
2.51
1.40
0.44
-0.28
-0.88
-1.62
-2.75
-4.38
-6.33
-8.33
-10.07
-11.45
-12.56
-13.61
-14.83
-16.33
-18.10
-20.09
-22.29
-24.63
-26.96
-28.89
-29.84
-29.26
-26.85
-22.82
-17.80
-12.66
-8.12
-4.45
-1.53
0.97
3.31
5.50
7.29
8.46
8.98
9.13
9.37
10.12
11.56
13.50
15.58
17.38
18.66
19.41
19.74
19.84
19.78
19.52
18.98
18.11
16.97
15.72
14.56
13.59
12.79
12.03
11.19
10.23
9.22
8.28
7.48
6.78
6.08
5.21
4.05
2.59
0.85
-1.11
-3.23
-5.49
-7.78
-9.95
-11.82
-13.30
-14.44
-15.46
-16.68
-18.43
-20.88
-23.98
-27.44
-30.75
-33.33
-34.62
-34.29
-32.25
-28.73
-24.15
-19.02
-13.81
-8.90
-4.53
-0.76
2.54
5.63
8.71
11.90
15.10
17.99
20.21
21.49
21.71
21.01
19.70
18.14
16.69
15.64
15.16
15.34
16.12
17.38
18.92
20.50
21.87
22.79
23.09
22.77
22.03
21.20
20.62
20.39
20.34
20.04
19.02
17.05
14.31
11.32
8.69
6.88
5.92
5.55
5.32
4.82
3.85
2.47
0.83
-0.90
-2.68
-4.57
-6.64
-9.00
-11.76
-14.93
-18.49
-22.25
-25.80
-28.52
-29.76
-29.09
-26.45
-22.25
-17.19
-12.02
-7.25
-3.10
0.44
3.44
5.94
7.97
9.58
10.90
12.08
13.22
14.30
15.18
15.76
16.01
16.04
15.98
15.88
15.65
15.11
14.06
12.49
10.63
8.89
7.67
7.16
7.23
7.47
7.33
6.42
4.64
2.27
-0.20
-2.24
-3.49
-3.83
-3.41
-2.56
-1.69
-1.26
-1.67
-3.22
-5.96
-9.70
-13.97
-18.18
-21.76
-24.36
-26.02
-27.09
-28.21
-29.91
-32.43
-35.56
-38.54
-40.38
-40.12
-37.24
-31.81
-24.54
-16.46
-8.69
-1.98
3.26
7.10
9.77
11.57
12.71
13.39
13.82
14.30
15.19
16.73
18.91
21.43
23.76
25.46
26.25
26.21
25.68
25.06
24.61
24.33
24.05
23.51
22.59
21.29
19.73
18.04
16.34
14.66
13.01
11.45
10.02
8.72
7.45
6.09
4.45
2.43
0.03
-2.61
-5.25
-7.62
-9.54
-10.95
-12.01
-13.00
-14.31
-16.25
-18.98
-22.41
-26.25
-30.02
-33.10
-34.87
-34.87
-32.91
-29.22
-24.31
-18.90
-13.55
-8.60
-4.10
-0.00
3.77
7.20
10.22
12.78
14.89
16.60
17.97
19.00
19.71
20.10
20.26
20.27
20.25
20.25
20.33
20.48
20.64
20.69
20.51
19.97
19.10
18.09
17.23
16.75
16.69
16.74
16.31
14.78
11.74
7.26
1.89
-3.51
-8.02
-11.03
-12.39
-12.43
-11.79
-11.14
-11.02
-11.71
-13.23
-15.45
-18.11
-20.99
-23.88
-26.65
-29.24
-31.57
-33.54
-34.97
-35.59
-35.11
-33.33
-30.19
-25.80
-20.36
-14.15
-7.42
-0.48
6.28
12.36
17.24
20.53
22.11
22.22
21.37
20.22
19.37
19.24
19.94
21.32
23.03
24.63
25.72
26.10
25.77
24.94
23.92
22.99
22.31
21.84
21.45
20.98
20.31
19.37
18.09
16.35
14.08
11.26
8.01
4.63
1.45
-1.20
-3.21
-4.65
-5.82
-7.08
-8.76
-10.97
-13.60
-16.42
-19.19
-21.88
-24.60
-27.58
-30.86
-34.18
-36.88
-38.10
-37.20
-33.93
-28.63
-22.07
-15.11
-8.48
-2.57
2.50
6.75
10.22
12.95
14.99
16.44
17.49
18.36
19.17
19.95
20.57
20.86
20.70
20.13
19.35
18.65
18.35
18.63
19.43
20.52
21.49
22.00
21.84
20.96
19.52
17.70
15.65
13.53
11.46
9.60
8.13
7.11
6.43
5.80
4.81
3.14
0.68
-2.40
-5.77
-9.05
-11.93
-14.26
-16.12
-17.73
-19.44
-21.61
-24.45
-27.95
-31.81
-35.48
-38.29
-39.53
-38.73
-35.62
-30.37
-23.47
-15.74
-8.13
-1.51
3.61
7.21
9.70
11.63
13.45
15.26
16.85
17.92
18.31
18.17
17.79
17.51
17.45
17.51
17.50
17.32
17.06
16.93
17.14
17.66
18.25
18.58
18.37
17.58
16.37
15.02
13.78
12.68
11.62
10.43
9.01
7.38
5.67
4.00
2.42
0.84
-0.87
-2.77
-4.87
-7.03
-9.11
-11.03
-12.82
-14.56
-16.39
-18.38
-20.61
-23.15
-26.02
-29.09
-32.00
-34.12
-34.71
-33.20
-29.48
-24.00
-17.59
-11.17
-5.44
-0.63
3.37
6.77
9.71
12.17
14.07
15.43
16.40
17.21
18.03
18.89
19.66
20.21
20.54
20.78
21.13
21.70
22.44
23.12
23.54
23.58
23.30
22.84
22.34
21.74
20.82
19.34
17.18
14.48
11.60
9.03
7.03
5.67
4.69
3.76
2.59
1.11
-0.63
-2.51
-4.45
-6.46
-8.54
-10.69
-12.82
-14.85
-16.85
-18.98
-21.47
-24.36
-27.38
-29.96
-31.31
-30.76
-28.01
-23.27
-17.26
-10.98
-5.43
-1.28
1.22
2.31
2.58
2.70
3.25
4.58
6.71
9.41
12.29
14.87
16.77
17.76
17.79
17.09
16.03
15.03
14.47
14.52
15.12
16.04
16.91
17.30
16.82
15.27
12.68
9.36
5.85
2.77
0.60
-0.46
-0.55
-0.04
0.56
0.84
0.61
-0.15
-1.28
-2.58
-3.89
-5.13
-6.32
-7.57
-9.04
-10.79
-12.81
-14.98
-17.14
-19.15
-20.89
-22.18
-22.71
-22.10
-19.97
-16.20
-10.99
-4.90
1.35
7.10
11.97
15.84
18.75
20.73
21.75
21.79
20.92
19.44
17.79
16.40
15.49
15.06
14.95
14.96
15.03
15.17
15.37
15.50
15.29
14.45
12.81
10.41
7.45
4.13
0.58
-3.20
-7.24
-11.44
-15.55
-19.24
-22.22
-24.36
-25.75
-26.57
-27.10
-27.58
-28.18
-28.96
-29.86
-30.69
-31.21
-31.17
-30.49
-29.35
-28.09
-27.16
-26.95
-27.62
-29.04
-30.82
-32.32
-32.82
-31.77
-28.84
-24.12
-18.11
-11.51
-5.02
0.83
5.79
9.86
13.22
16.03
18.42
20.42
22.05
23.30
24.21
24.84
25.23
25.45
25.49
25.33
24.89
24.09
22.90
21.37
19.67
17.98
16.48
15.19
14.01
12.73
11.22
9.48
7.77
6.44
5.77
5.78
6.17
6.46
6.20
5.14
3.35
1.03
-1.54
-4.16
-6.68
-8.96
-10.86
-12.30
-13.33
-14.20
-15.22
-16.58
-18.19
-19.68
-20.49
-20.14
-18.38
-15.30
-11.26
-6.73
-2.20
1.94
5.45
8.23
10.29
11.76
12.76
13.38
13.70
13.79
13.78
13.82
14.06
14.55
15.21
15.88
16.32
16.42
16.20
15.77
15.28
14.82
14.45
14.14
13.83
13.40
12.68
11.47
9.60
7.13
4.26
1.40
-1.09
-3.03
-4.47
-5.65
-6.79
-7.99
-9.22
-10.39
-11.48
-12.61
-13.98
-15.81
-18.26
-21.35
-24.91
-28.51
-31.57
-33.36
-33.35
-31.28
-27.36
-22.20
-16.55
-11.10
-6.28
-2.23
1.09
3.73
5.69
6.93
7.49
7.55
7.43
7.44
7.75
8.29
8.79
8.90
8.39
7.29
5.91
4.70
4.05
4.13
4.82
5.75
6.46
6.52
5.72
4.09
1.95
-0.24
-2.10
-3.47
-4.46
-5.42
-6.71
-8.50
-10.70
-13.04
-15.08
-16.24
-15.72
-12.37
-5.00
7.10
23.49
42.35
60.93
76.54
87.57
93.95
96.74
97.21
95.99
92.95
87.86
81.21
74.69
70.74
71.59
78.05
88.94
101.30
111.24
115.03
110.25
96.31
74.58
47.95
20.09
-5.45
-26.05
-40.33
-48.29
-51.07
-50.60
-49.32
-49.64
-53.34
-60.78
-70.36
-78.85
-82.44
-78.45
-66.62
-49.60
-32.01
-18.79
-13.39
-16.77
-27.43
-42.33
-58.08
-71.88
-81.93
-87.44
-88.44
-85.57
-79.93
-72.82
-65.54
-59.14
-54.24
-51.00
-49.17
-48.27
-47.81
-47.45
-47.11
-46.91
-46.91
-47.00
-46.74
-45.48
-42.55
-37.59
-30.69
-22.46
-13.90
-6.04
0.26
4.57
6.94
7.80
7.82
7.60
7.58
7.94
8.66
9.63
10.76
11.98
13.19
14.29
15.15
15.72
15.99
16.04
15.94
15.64
15.04
14.00
12.53
10.71
8.75
6.85
5.12
3.59
2.29
1.25
0.53
0.17
0.06
-0.03
-0.37
-1.19
-2.50
-4.21
-6.14
-8.15
-10.26
-12.60
-15.27
-18.27
-21.42
-24.42
-26.96
-28.78
-29.76
-29.85
-29.11
-27.59
-25.38
-22.64
-19.56
-16.42
-13.52
-11.21
-9.72
-9.21
-9.58
-10.52
-11.56
-12.22
-12.33
-12.13
-12.19
-13.18
-15.40
-18.58
-21.94
-24.64
-26.24
-27.02
-27.86
-29.69
-32.82
-36.55
-39.22
-38.67
-32.89
-20.39
-0.50
26.54
59.40
95.43
130.66
160.46
180.64
188.95
186.00
175.12
161.15
148.47
139.28
132.91
126.55
116.88
101.98
82.25
60.21
39.13
21.59
8.53
-0.60
-6.91
-11.13
-13.17
-12.50
-9.09
-4.07
0.27
1.24
-3.09
-12.95
-26.57
-40.53
-50.83
-54.07
-48.57
-34.99
-16.29
2.93
17.76
24.28
20.66
7.53
-12.35
-35.06
-56.59
-73.77
-84.77
-89.11
-87.43
-81.00
-71.39
-60.19
-48.87
-38.73
-30.81
-25.70
-23.40
-23.38
-24.70
-26.36
-27.68
-28.46
-28.97
-29.72
-31.08
-32.99
-35.03
-36.48
-36.74
-35.52
-33.06
-30.02
-27.27
-25.65
-25.63
-27.20
-29.86
-32.77
-35.04
-36.03
-35.53
-33.69
-30.79
-27.10
-22.72
-17.70
-12.25
-6.90
-2.38
0.47
1.12
-0.54
-4.07
-8.74
-13.72
-18.34
-22.19
-25.09
-27.06
-28.26
-28.96
-29.49
-30.25
-31.65
-34.08
-37.72
-42.41
-47.52
-51.97
-54.49
-53.87
-49.33
-40.51
-27.47
-10.58
9.51
31.67
54.19
74.70
90.55
99.39
100.01
92.81
79.83
64.19
49.25
37.63
30.67
28.26
29.12
31.39
33.24
33.37
31.22
27.01
21.49
15.69
10.61
7.03
5.26
5.15
6.19
7.76
9.40
10.92
12.35
13.71
14.88
15.55
15.40
14.32
12.56
10.60
8.96
7.93
7.41
7.10
6.72
6.12
5.44
4.90
4.64
4.68
4.83
4.87
4.64
4.11
3.41
2.69
2.04
1.39
0.57
-0.61
-2.25
-4.24
-6.23
-7.88
-8.92
-9.41
-9.67
-10.22
-11.50
-13.67
-16.52
-19.51
-21.90
-22.99
-22.32
-19.82
-15.76
-10.66
-5.16
0.11
4.62
8.03
10.09
10.78
10.25
8.86
7.07
5.38
4.17
3.62
3.75
4.45
5.57
6.92
8.32
9.61
10.65
11.35
11.69
11.75
11.60
11.28
10.80
10.11
9.22
8.12
6.85
5.37
3.60
1.44
-1.15
-4.00
-6.81
-9.16
-10.72
-11.37
-11.26
-10.82
-10.53
-10.85
-12.05
-14.13
-16.84
-19.71
-22.14
-23.54
-23.49
-21.84
-18.79
-14.89
-10.79
-7.08
-4.09
-1.80
-0.01
1.58
3.19
4.87
6.53
8.02
9.11
9.64
9.50
8.70
7.40
5.92
4.60
3.72
3.33
3.27
3.32
3.28
3.10
2.87
2.68
2.57
2.44
2.09
1.37
0.19
-1.43
-3.37
-5.44
-7.47
-9.29
-10.79
-11.93
-12.76
-13.45
-14.24
-15.38
-17.07
-19.38
-22.13
-24.89
-27.05
-27.92
-26.99
-24.09
-19.52
-13.97
-8.29
-3.24
0.80
3.83
6.11
7.96
9.58
10.99
12.06
12.73
13.07
13.29
13.59
14.02
14.43
14.57
14.25
13.48
12.47
11.54
10.93
10.65
10.56
10.37
9.90
9.13
8.23
7.42
6.79
6.27
5.62
4.60
3.07
1.12
-1.07
-3.30
-5.41
-7.37
-9.13
-10.65
-11.87
-12.85
-13.78
-14.95
-16.63
-18.72
-20.75
-21.98
-21.73
-19.73
-16.21
-11.86
-7.43
-3.51
-0.29
2.31
4.51
6.49
8.29
9.88
11.18
12.18
12.97
13.69
14.44
15.23
15.96
16.44
16.55
16.28
15.79
15.27
14.83
14.40
13.79
12.86
11.63
10.36
9.39
8.89
8.77
8.67
8.22
7.15
5.45
3.31
0.96
-1.32
-3.30
-4.80
-5.69
-6.04
-6.07
-6.21
-6.84
-8.21
-10.33
-13.02
-16.01
-18.95
-21.48
-23.13
-23.45
-22.10
-19.03
-14.57
-9.41
-4.29
0.15
3.63
6.21
8.15
9.78
11.32
12.81
14.19
15.30
16.08
16.52
16.75
16.89
17.04
17.17
17.21
17.02
16.58
15.93
15.21
14.57
14.07
13.67
13.21
12.53
11.53
10.23
8.79
7.43
6.30
5.46
4.83
4.28
3.69
3.01
2.23
1.31
0.25
-1.00
-2.36
-3.69
-4.82
-5.65
-6.31
-7.08
-8.29
-10.11
-12.35
-14.52
-15.95
-16.06
-14.58
-11.62
-7.57
-2.95
1.81
6.50
11.11
15.79
20.61
25.57
30.48
35.05
39.01
42.26
44.91
47.32
49.97
53.29
57.42
62.16
67.02
71.39
74.72
76.63
76.92
75.44
72.09
66.86
59.88
51.52
42.26
32.56
22.70
12.88
3.38
-5.28
-12.30
-16.92
-18.72
-17.95
-15.45
-12.42
-9.94
-8.70
-8.87
-10.24
-12.40
-14.93
-17.44
-19.64
-21.25
-22.12
-22.25
-21.85
-21.31
-21.15
-21.82
-23.56
-26.26
-29.48
-32.55
-34.83
-35.94
-35.93
-35.30
-34.77
-34.96
-36.12
-38.01
-39.98
-41.33
-41.63
-40.93
-39.70
-38.53
-37.81
-37.57
-37.47
-37.14
-36.36
-35.18
-33.82
-32.40
-30.86
-28.94
-26.37
-23.19
-19.78
-16.76
-14.71
-13.82
-13.76
-13.76
-12.97
-10.77
-7.04
-2.23
2.89
7.52
11.13
13.60
15.14
16.14
16.84
17.31
17.39
16.88
15.67
13.87
11.77
9.67
7.80
6.17
4.52
2.52
-0.17
-3.69
-7.95
-12.60
-17.18
-21.19
-24.21
-25.90
-26.07
-24.61
-21.59
-17.28
-12.18
-6.98
-2.37
1.14
3.33
4.33
4.49
4.26
4.03
4.15
4.82
6.15
8.03
10.18
12.21
13.76
14.64
14.82
14.48
13.81
12.90
11.75
10.32
8.64
6.88
5.29
4.06
3.27
2.77
2.28
1.54
0.40
-1.07
-2.57
-3.76
-4.47
-4.78
-5.00
-5.51
-6.50
-7.91
-9.45
-10.76
-11.59
-11.88
-11.70
-11.28
-10.87
-10.68
-10.91
-11.65
-12.92
-14.55
-16.26
-17.64
-18.25
-17.68
-15.65
-12.18
-7.61
-2.56
2.18
5.94
8.29
9.23
9.01
8.06
6.80
5.58
4.65
4.15
4.10
4.45
5.02
5.65
6.19
6.64
7.09
7.68
8.48
9.47
10.48
11.25
11.54
11.25
10.46
9.40
8.39
7.63
7.17
6.83
6.38
5.66
4.65
3.51
2.43
1.52
0.73
-0.03
-0.84
-1.68
-2.38
-2.81
-2.92
-2.88
-2.94
-3.32
-4.12
-5.23
-6.46
-7.63
-8.71
-9.86
-11.32
-13.29
-15.74
-18.41
-20.82
-22.41
-22.75
-21.66
-19.19
-15.66
-11.44
-6.96
-2.60
1.33
4.61
7.18
9.11
10.60
11.84
12.95
13.89
14.54
14.76
14.55
14.10
13.67
13.50
13.67
14.09
14.58
15.01
15.32
15.55
15.72
15.81
15.70
15.27
14.48
13.43
12.28
11.18
10.21
9.36
8.57
7.81
7.07
6.38
5.77
5.23
4.69
4.05
3.26
2.32
1.25
0.08
-1.17
-2.57
-4.12
-5.78
-7.42
-8.87
-10.06
-11.00
-11.84
-12.78
-13.96
-15.41
-17.08
-18.87
-20.62
-22.08
-22.89
-22.66
-21.11
-18.30
-14.64
-10.76
-7.20
-4.26
-1.88
0.16
2.05
3.79
5.27
6.38
7.16
7.80
8.49
9.32
10.23
11.07
11.67
11.95
11.88
11.51
10.94
10.30
9.76
9.47
9.47
9.68
9.94
10.12
10.11
9.87
9.40
8.66
7.67
6.43
5.09
3.89
3.06
2.75
2.93
3.38
3.79
3.90
3.51
2.60
1.32
-0.15
-1.57
-2.82
-3.87
-4.83
-5.78
-6.77
-7.83
-8.99
-10.38
-12.17
-14.42
-17.02
-19.58
-21.56
-22.53
-22.26
-20.80
-18.38
-15.27
-11.70
-7.90
-4.13
-0.72
2.04
4.05
5.44
6.49
7.47
8.53
9.58
10.43
10.93
11.10
11.11
11.20
11.52
12.05
12.60
12.91
12.82
12.36
11.72
11.15
10.80
10.65
10.52
10.19
9.54
8.62
7.57
6.59
5.84
5.36
5.10
4.92
4.61
4.00
2.96
1.52
-0.16
-1.89
-3.51
-4.98
-6.34
-7.66
-8.93
-10.11
-11.08
-11.80
-12.30
-12.68
-13.17
-13.96
-15.20
-16.78
-18.43
-19.67
-19.99
-19.01
-16.61
-12.94
-8.40
-3.50
1.21
5.24
8.23
9.99
10.58
10.26
9.46
8.57
7.83
7.27
6.81
6.39
6.11
6.22
7.03
8.71
11.24
14.23
17.05
19.02
19.61
18.73
16.70
14.18
11.87
10.32
9.73
10.08
11.28
13.29
16.15
19.79
23.96
28.09
31.55
33.83
34.84
34.87
34.36
33.68
32.93
31.90
30.23
27.54
23.41
17.48
9.45
-0.68
-12.49
-25.05
-37.15
-47.71
-56.16
-62.48
-66.99
-69.92
-71.18
-70.35
-67.09
-61.48
-54.21
-46.40
-39.15
-33.13
-28.43
-24.70
-21.49
-18.53
-15.83
-13.51
-11.65
-10.11
-8.55
-6.66
-4.32
-1.70
0.76
2.58
3.43
3.30
2.53
1.68
1.26
1.54
2.48
3.78
5.02
5.94
6.46
6.72
6.87
7.02
7.15
7.19
7.07
6.81
6.38
5.76
4.83
3.54
1.94
0.30
-0.94
-1.35
-0.74
0.60
1.91
2.15
0.25
-4.47
-11.93
-21.29
-31.04
-39.50
-45.37
-48.14
-48.14
-46.21
-43.29
-40.09
-37.01
-34.29
-32.16
-30.82
-30.21
-29.95
-29.36
-27.74
-24.81
-20.90
-16.80
-13.42
-11.28
-10.34
-10.10
-9.85
-9.04
-7.45
-5.18
-2.49
0.37
3.30
6.43
10.12
14.97
21.80
31.43
44.48
60.93
80.02
100.22
119.67
136.70
150.16
159.56
164.73
165.56
161.86
153.46
140.70
124.71
107.31
90.62
76.35
65.31
57.29
51.29
46.04
40.46
33.98
26.67
18.94
11.32
4.16
-2.46
-8.70
-14.74
-20.59
-26.03
-30.63
-33.89
-35.43
-35.11
-33.07
-29.71
-25.59
-21.36
-17.56
-14.55
-12.41
-10.94
-9.78
-8.55
-7.03
-5.19
-3.17
-1.22
0.39
1.48
1.89
1.62
0.76
-0.55
-2.15
-3.96
-6.04
-8.48
-11.35
-14.61
-18.06
-21.41
-24.41
-26.97
-29.21
-31.53
-34.49
-38.74
-44.77
-52.71
-62.17
-72.13
-81.09
-87.33
-89.38
-86.47
-78.81
-67.65
-54.89
-42.60
-32.43
-25.26
-21.12
-19.52
-19.71
-21.04
-22.94
-24.92
-26.43
-26.98
-26.24
-24.26
-21.49
-18.63
-16.37
-15.12
-14.90
-15.36
-15.91
-15.90
-14.79
-12.23
-8.14
-2.78
3.30
9.35
14.63
18.64
21.26
22.74
23.53
24.06
24.51
24.74
24.45
23.39
21.53
19.16
16.78
14.86
13.74
13.51
13.99
14.87
15.77
16.34
16.36
15.74
14.52
12.83
10.80
8.56
6.22
3.87
1.64
-0.33
-1.88
-2.93
-3.45
-3.46
-3.11
-2.55
-2.01
-1.67
-1.71
-2.18
-3.06
-4.22
-5.47
-6.64
-7.61
-8.31
-8.83
-9.30
-9.88
-10.64
-11.58
-12.55
-13.45
-14.22
-14.93
-15.80
-17.11
-19.08
-21.66
-24.49
-26.97
-28.41
-28.27
-26.39
-23.01
-18.65
-13.92
-9.35
-5.26
-1.79
1.02
3.16
4.69
5.72
6.46
7.08
7.68
8.31
8.95
9.66
10.56
11.76
13.25
14.88
16.34
17.35
17.76
17.63
17.12
16.41
15.64
14.88
14.21
13.66
13.30
13.07
12.85
12.44
11.68
10.57
9.25
7.94
6.80
5.87
5.06
4.22
3.28
2.27
1.26
0.34
-0.54
-1.52
-2.77
-4.33
-6.15
-8.04
-9.83
-11.50
-13.12
-14.81
-16.56
-18.23
-19.54
-20.27
-20.30
-19.68
-18.51
-16.89
-14.78
-12.14
-8.93
-5.23
-1.25
2.71
6.32
9.32
11.58
13.08
13.96
14.40
14.56
14.58
14.52
14.44
14.44
14.62
15.03
15.63
16.26
16.77
17.07
17.23
17.46
17.98
18.90
20.10
21.37
22.42
23.11
23.45
23.55
23.52
23.39
23.06
22.40
21.35
19.90
18.10
16.04
13.76
11.31
8.78
6.30
4.02
2.06
0.44
-0.91
-2.09
-3.15
-4.14
-5.04
-5.87
-6.74
-7.80
-9.14
-10.73
-12.38
-13.85
-14.94
-15.63
-16.13
-16.79
-17.97
-19.86
-22.35
-25.02
-27.30
-28.63
-28.64
-27.28
-24.75
-21.39
-17.57
-13.55
-9.53
-5.72
-2.35
0.38
2.37
3.70
4.66
5.56
6.64
7.99
9.54
11.17
12.75
14.14
15.22
15.85
15.95
15.60
15.05
14.65
14.70
15.22
15.98
16.54
16.53
15.80
14.46
12.82
11.18
9.76
8.59
7.62
6.80
6.13
5.63
5.34
5.19
5.05
4.77
4.26
3.54
2.75
2.02
1.39
0.79
0.03
-1.05
-2.49
-4.14
-5.74
-7.03
-7.90
-8.45
-8.92
-9.56
-10.51
-11.78
-13.38
-15.32
-17.61
-20.12
-22.49
-24.12
-24.43
-23.12
-20.30
-16.49
-12.38
-8.52
-5.20
-2.42
-0.00
2.17
4.16
5.93
7.40
8.48
9.12
9.33
9.20
8.92
8.69
8.70
9.04
9.69
10.58
11.58
12.56
13.37
13.87
14.01
13.82
13.46
13.14
13.02
13.10
13.22
13.13
12.64
11.66
10.30
8.72
7.15
5.82
4.83
4.22
3.91
3.72
3.45
2.93
2.13
1.10
-0.06
-1.28
-2.53
-3.83
-5.18
-6.47
-7.55
-8.32
-8.80
-9.23
-9.97
-11.36
-13.56
-16.36
-19.30
-21.78
-23.26
-23.44
-22.27
-19.92
-16.66
-12.81
-8.74
-4.74
-1.15
1.82
4.03
5.50
6.40
6.98
7.53
8.26
9.25
10.41
11.53
12.40
12.91
13.08
13.07
13.09
13.31
13.77
14.44
15.22
16.02
16.77
17.48
18.22
19.08
20.14
21.47
23.07
24.87
26.75
28.55
30.12
31.34
32.15
32.58
32.85
33.31
34.36
36.31
39.14
42.47
45.58
47.65
48.01
46.34
42.75
37.70
31.82
25.67
19.60
13.74
8.01
2.27
-3.55
-9.46
-15.42
-21.40
-27.39
-33.27
-38.80
-43.48
-46.74
-48.01
-47.13
-44.36
-40.48
-36.47
-33.21
-31.19
-30.30
-30.02
-29.71
-28.90
-27.51
-25.71
-23.79
-21.91
-20.10
-18.35
-16.83
-15.83
-15.68
-16.40
-17.57
-18.47
-18.38
-17.00
-14.66
-12.16
-10.44
-10.10
-11.18
-13.23
-15.51
-17.36
-18.35
-18.40
-17.63
-16.28
-14.57
-12.74
-10.98
-9.46
-8.32
-7.60
-7.20
-6.92
-6.54
-6.00
-5.44
-5.12
-5.32
-6.12
-7.41
-8.85
-10.12
-11.05
-11.63
-12.08
-12.66
-13.55
-14.83
-16.44
-18.26
-20.03
-21.46
-22.13
-21.70
-19.92
-16.82
-12.72
-8.18
-3.83
-0.16
2.62
4.56
5.95
7.09
8.21
9.38
10.55
11.58
12.34
12.73
12.74
12.43
12.03
11.84
12.13
13.01
14.35
15.80
16.96
17.52
17.37
16.61
15.43
14.02
12.58
11.23
10.15
9.48
9.26
9.47
9.91
10.31
10.46
10.20
9.49
8.39
6.99
5.43
3.84
2.32
0.91
-0.45
-1.84
-3.29
-4.76
-6.10
-7.17
-7.93
-8.55
-9.34
-10.62
-12.53
-14.87
-17.18
-18.83
-19.31
-18.39
-16.14
-12.88
-9.04
-5.05
-1.26
2.08
4.85
7.02
8.67
9.91
10.85
11.59
12.18
12.68
13.15
13.62
14.06
14.40
14.56
14.49
14.24
13.95
13.74
13.66
13.61
13.49
13.17
12.64
11.99
11.30
10.64
9.97
9.20
8.27
7.18
5.95
4.65
3.29
1.94
0.66
-0.43
-1.25
-1.78
-2.12
-2.48
-3.07
-4.01
-5.26
-6.66
-8.05
-9.32
-10.53
-11.79
-13.26
-14.99
-16.96
-19.04
-21.09
-23.00
-24.64
-25.87
-26.48
-26.21
-24.86
-22.37
-18.88
-14.75
-10.43
-6.36
-2.89
-0.20
1.72
3.00
3.86
4.56
5.31
6.18
7.10
7.88
8.33
8.37
8.09
7.68
7.37
7.31
7.53
7.97
8.54
9.12
9.57
9.78
9.64
9.17
8.44
7.63
6.91
6.34
5.88
5.40
4.83
4.14
3.44
2.82
2.41
2.30
2.46
2.82
3.18
3.32
3.01
2.19
0.96
-0.43
-1.72
-2.76
-3.60
-4.39
-5.28
-6.31
-7.39
-8.47
-9.54
-10.64
-11.82
-12.92
-13.59
-13.42
-12.06
-9.48
-5.96
-2.04
1.70
4.76
6.95
8.34
9.27
10.17
11.38
13.04
15.02
17.01
18.69
19.81
20.34
20.41
20.23
19.98
19.77
19.63
19.53
19.39
19.14
18.68
17.89
16.74
15.23
13.49
11.74
10.17
8.91
8.06
7.51
7.14
6.79
6.35
5.76
5.03
4.24
3.46
2.83
2.45
2.41
2.65
3.00
3.20
2.98
2.25
1.05
-0.41
-1.96
-3.49
-5.05
-6.78
-8.80
-11.16
-13.84
-16.76
-19.82
-22.88
-25.67
-27.84
-29.00
-28.90
-27.53
-25.18
-22.31
-19.36
-16.58
-13.97
-11.35
-8.55
-5.54
-2.48
0.33
2.62
4.26
5.29
5.95
6.45
6.93
7.28
7.26
6.64
5.34
3.49
1.51
-0.19
-1.26
-1.62
-1.41
-0.89
-0.34
-0.00
-0.01
-0.44
-1.24
-2.20
-2.99
-3.21
-2.55
-0.93
1.51
4.38
7.26
9.74
11.55
12.51
12.55
11.66
9.92
7.56
4.90
2.34
0.21
-1.30
-2.21
-2.67
-2.90
-3.04
-3.20
-3.38
-3.66
-4.13
-4.92
-6.12
-7.66
-9.31
-10.73
-11.58
-11.67
-11.02
-9.89
-8.68
-7.79
-7.50
-7.86
-8.74
-9.85
-10.90
-11.65
-11.96
-11.80
-11.18
-10.15
-8.82
-7.30
-5.73
-4.21
-2.77
-1.45
-0.23
0.83
1.73
2.51
3.30
4.23
5.38
6.71
8.08
9.30
10.25
10.85
11.13
11.08
10.69
9.93
8.85
7.54
6.23
5.12
4.38
4.00
3.83
3.66
3.27
2.61
1.75
0.87
0.13
-0.45
-1.02
-1.83
-3.07
-4.76
-6.75
-8.76
-10.55
-11.95
-12.86
-13.20
-12.85
-11.74
-9.89
-7.47
-4.83
-2.33
-0.25
1.21
2.03
2.26
2.07
1.70
1.38
1.35
1.70
2.35
3.06
3.54
3.60
3.27
2.76
2.36
2.30
2.71
3.65
5.07
6.92
9.03
11.12
12.85
13.83
13.85
12.98
11.52
9.93
8.55
7.52
6.77
6.17
5.67
5.39
5.46
5.86
6.38
6.58
6.06
4.59
2.28
-0.45
-3.13
-5.38
-7.11
-8.48
-9.78
-11.28
-13.08
-15.08
-17.04
-18.65
-19.63
-19.85
-19.26
-17.92
-16.01
-13.77
-11.47
-9.43
-7.88
-6.91
-6.48
-6.38
-6.34
-6.13
-5.58
-4.65
-3.44
-2.12
-0.86
0.18
0.94
1.47
1.87
2.26
2.68
3.07
3.38
3.55
3.64
3.74
3.98
4.37
4.81
5.13
5.18
5.03
4.89
5.11
5.99
7.56
9.61
11.73
13.46
14.49
14.74
14.34
13.48
12.37
11.07
9.62
8.00
6.23
4.35
2.44
0.53
-1.32
-3.14
-4.97
-6.87
-8.86
-10.80
-12.47
-13.58
-13.95
-13.53
-12.42
-10.81
-8.94
-6.99
-5.22
-3.85
-3.05
-2.82
-2.95
-2.99
-2.55
-1.41
0.23
1.90
3.11
3.53
3.20
2.41
1.51
0.74
0.15
-0.36
-0.93
-1.62
-2.40
-3.16
-3.74
-3.99
-3.84
-3.29
-2.50
-1.67
-1.03
-0.77
-0.93
-1.43
-2.13
-2.90
-3.64
-4.35
-5.04
-5.72
-6.39
-7.06
-7.78
-8.58
-9.53
-10.58
-11.70
-12.73
-13.60
-14.30
-14.88
-15.46
-16.09
-16.65
-16.92
-16.58
-15.44
-13.49
-10.91
-8.04
-5.26
-2.83
-0.90
0.53
1.52
2.15
2.53
2.79
3.12
3.62
4.35
5.25
6.19
7.02
7.67
8.15
8.47
8.64
8.60
8.29
7.67
6.79
5.80
4.89
4.24
3.91
3.87
4.05
4.34
4.65
4.88
4.96
4.81
4.38
3.65
2.65
1.50
0.31
-0.79
-1.71
-2.40
-2.93
-3.39
-3.92
-4.61
-5.56
-6.77
-8.21
-9.77
-11.33
-12.70
-13.71
-14.13
-13.83
-12.76
-11.01
-8.76
-6.27
-3.80
-1.57
0.30
1.73
2.73
3.37
3.79
4.11
4.48
4.97
5.59
6.29
6.97
7.54
7.91
8.03
7.87
7.46
6.92
6.46
6.31
6.60
7.30
8.16
8.80
8.87
8.25
7.10
5.74
4.49
3.55
2.93
2.50
2.11
1.63
1.04
0.32
-0.54
-1.50
-2.46
-3.30
-3.87
-4.16
-4.34
-4.70
-5.54
-7.01
-9.06
-11.38
-13.51
-14.96
-15.35
-14.47
-12.42
-9.56
-6.40
-3.44
-1.01
0.82
2.19
3.38
4.67
6.24
8.11
10.18
12.28
14.16
15.59
16.36
16.39
15.71
14.50
13.02
11.55
10.29
9.36
8.77
8.52
8.62
9.08
9.88
10.93
11.94
12.49
12.10
10.40
7.35
3.32
-0.99
-4.70
-7.09
-7.80
-6.97
-5.17
-3.20
-1.83
-1.58
-2.59
-4.65
-7.30
-10.00
-12.26
-13.77
-14.43
-14.31
-13.65
-12.77
-11.99
-11.51
-11.35
-11.35
-11.17
-10.48
-9.12
-7.15
-4.93
-2.87
-1.40
-0.67
-0.64
-1.05
-1.57
-1.92
-1.96
-1.66
-1.04
-0.23
0.68
1.55
2.35
3.08
3.83
4.69
5.69
6.75
7.70
8.30
8.37
7.82
6.71
5.22
3.65
2.29
1.39
1.07
1.31
1.93
2.62
3.04
2.89
1.98
0.35
-1.79
-4.04
-5.99
-7.28
-7.76
-7.46
-6.62
-5.65
-4.96
-4.96
-5.86
-7.62
-9.90
-12.08
-13.49
-13.66
-12.44
-10.07
-7.03
-3.82
-0.79
1.93
4.36
6.59
8.63
10.44
11.94
13.07
13.79
14.08
13.86
13.10
11.83
10.24
8.66
7.44
6.80
6.71
6.93
7.11
7.02
6.63
6.01
5.23
4.25
2.95
1.34
-0.40
-1.86
-2.69
-2.78
-2.43
-2.15
-2.30
-2.97
-3.82
-4.38
-4.36
-3.83
-3.17
-2.78
-2.90
-3.37
-3.90
-4.19
-4.14
-3.91
-3.75
-3.88
-4.35
-5.09
-5.89
-6.62
-7.16
-7.49
-7.59
-7.40
-6.88
-6.02
-4.84
-3.45
-1.93
-0.38
1.16
2.64
3.99
5.13
5.99
6.54
6.81
6.89
6.86
6.76
6.61
6.39
6.12
5.89
5.77
5.77
5.85
5.92
5.90
5.77
5.56
5.22
4.70
3.91
2.81
1.48
0.12
-1.01
-1.67
-1.78
-1.41
-0.77
-0.14
0.24
0.19
-0.38
-1.44
-2.89
-4.59
-6.36
-8.03
-9.48
-10.68
-11.73
-12.84
-14.20
-15.85
-17.58
-18.92
-19.32
-18.41
-16.18
-13.08
-9.76
-6.80
-4.51
-2.78
-1.22
0.58
2.84
5.53
8.33
10.82
12.65
13.57
13.54
12.70
11.35
9.89
8.70
8.06
8.03
8.53
9.33
10.15
10.73
10.93
10.71
10.19
9.55
8.94
8.47
8.13
7.81
7.40
6.77
5.89
4.79
3.55
2.24
1.00
-0.08
-0.89
-1.41
-1.66
-1.79
-1.99
-2.43
-3.15
-4.11
-5.18
-6.24
-7.25
-8.31
-9.57
-11.19
-13.16
-15.24
-16.97
-17.86
-17.52
-15.90
-13.31
-10.30
-7.40
-4.96
-3.02
-1.44
-0.05
1.26
2.43
3.43
4.22
4.88
5.50
6.14
6.80
7.40
7.87
8.12
8.12
7.84
7.30
6.59
5.87
5.36
5.20
5.35
5.56
5.48
4.88
3.74
2.37
1.23
0.71
0.93
1.67
2.47
2.86
2.59
1.67
0.39
-0.90
-1.88
-2.42
-2.64
-2.84
-3.33
-4.33
-5.84
-7.62
-9.39
-10.93
-12.21
-13.39
-14.66
-16.12
-17.67
-19.11
-20.29
-21.18
-21.87
-22.36
-22.51
-22.01
-20.57
-18.13
-14.95
-11.53
-8.32
-5.59
-3.33
-1.36
0.44
2.08
3.53
4.77
5.95
7.24
8.75
10.43
12.02
13.22
13.85
13.96
13.77
13.62
13.73
14.18
14.88
15.56
15.97
15.89
15.26
14.20
12.98
11.89
11.16
10.84
10.80
10.84
10.81
10.65
10.36
10.01
9.59
8.98
8.05
6.73
5.08
3.29
1.55
-0.04
-1.50
-3.03
-4.84
-7.08
-9.77
-12.74
-15.69
-18.23
-19.94
-20.53
-19.90
-18.14
-15.61
-12.73
-9.91
-7.43
-5.40
-3.74
-2.31
-1.01
0.24
1.41
2.46
3.33
4.04
4.61
5.16
5.73
6.30
6.75
6.92
6.68
6.04
5.12
4.16
3.45
3.16
3.38
4.00
4.86
5.76
6.53
7.08
7.38
7.47
7.42
7.33
7.32
7.44
7.70
8.01
8.25
8.25
7.87
7.04
5.75
4.06
2.12
0.15
-1.66
-3.15
-4.34
-5.40
-6.62
-8.27
-10.51
-13.34
-16.56
-19.83
-22.65
-24.54
-25.08
-24.08
-21.73
-18.53
-15.23
-12.54
-10.86
-10.15
-10.03
-9.90
-9.33
-8.11
-6.28
-4.05
-1.62
0.86
3.29
5.60
7.71
9.53
11.03
12.26
13.36
14.49
15.78
17.30
19.03
20.89
22.78
24.55
26.00
26.90
27.07
26.39
24.88
22.68
20.09
17.43
15.04
13.15
11.81
10.93
10.19
9.25
7.79
5.68
2.98
-0.08
-3.14
-5.85
-7.91
-9.14
-9.52
-9.24
-8.67
-8.25
-8.43
-9.43
-11.26
-13.62
-15.96
-17.66
-18.25
-17.55
-15.78
-13.47
-11.25
-9.61
-8.79
-8.68
-8.98
-9.30
-9.37
-9.08
-8.49
-7.75
-6.96
-6.19
-5.39
-4.39
-2.96
-0.93
1.76
4.93
8.18
11.01
12.96
13.76
13.37
12.05
10.11
7.90
5.64
3.44
1.32
-0.69
-2.51
-4.00
-5.06
-5.70
-6.05
-6.38
-6.91
-7.76
-8.83
-9.93
-10.85
-11.49
-11.91
-12.28
-12.75
-13.44
-14.41
-15.67
-17.27
-19.18
-21.21
-23.02
-24.18
-24.34
-23.41
-21.62
-19.35
-16.98
-14.68
-12.41
-10.08
-7.63
-5.11
-2.62
-0.22
2.09
4.34
6.39
7.99
8.85
8.81
8.04
6.99
6.18
6.06
6.70
7.95
9.54
11.21
12.82
14.25
15.37
16.05
16.17
15.79
15.13
14.58
14.45
14.89
15.75
16.68
17.28
17.23
16.45
15.08
13.36
11.49
9.58
7.59
5.47
3.19
0.80
-1.59
-3.87
-6.01
-8.10
-10.24
-12.46
-14.62
-16.40
-17.36
-17.09
-15.31
-11.99
-7.36
-1.88
3.83
9.08
13.31
16.15
17.55
17.72
17.01
15.79
14.38
13.01
11.89
11.24
11.18
11.79
13.00
14.72
16.91
19.64
23.06
27.25
32.03
36.88
41.14
44.19
45.76
46.01
45.41
44.58
43.93
43.64
43.56
43.39
42.79
41.48
39.29
36.13
31.96
26.90
21.23
15.48
10.26
6.08
3.14
1.16
-0.55
-2.70
-5.83
-9.96
-14.69
-19.33
-23.18
-25.71
-26.65
-25.95
-23.79
-20.55
-16.78
-13.16
-10.23
-8.33
-7.48
-7.43
-7.82
-8.34
-8.85
-9.31
-9.71
-10.02
-10.19
-10.17
-10.00
-9.79
-9.62
-9.52
-9.44
-9.27
-8.97
-8.62
-8.39
-8.42
-8.76
-9.22
-9.50
-9.29
-8.45
-7.09
-5.59
-4.37
-3.72
-3.71
-4.22
-5.01
-5.94
-7.00
-8.28
-9.86
-11.74
-13.76
-15.76
-17.57
-19.10
-20.35
-21.27
-21.70
-21.49
-20.51
-18.79
-16.53
-14.05
-11.63
-9.46
-7.63
-6.09
-4.81
-3.79
-3.04
-2.58
-2.31
-2.13
-1.92
-1.63
-1.22
-0.77
-0.32
0.10
0.43
0.60
0.53
0.16
-0.49
-1.33
-2.24
-3.10
-3.85
-4.51
-5.12
-5.73
-6.28
-6.69
-6.83
-6.67
-6.29
-5.91
-5.76
-5.98
-6.57
-7.34
-8.07
-8.57
-8.84
-9.03
-9.40
-10.21
-11.58
-13.48
-15.69
-17.83
-19.45
-20.07
-19.38
-17.31
-14.12
-10.38
-6.73
-3.70
-1.58
-0.36
0.20
0.36
0.40
0.51
0.81
1.32
1.89
2.29
2.25
1.65
0.65
-0.36
-0.96
-0.93
-0.47
-0.13
-0.60
-2.27
-5.08
-8.47
-11.72
-14.18
-15.58
-16.05
-15.97
-15.84
-16.24
-17.76
-20.88
-25.56
-30.81
-34.58
-34.24
-27.60
-14.04
4.95
26.15
45.78
60.89
70.21
74.18
74.17
71.60
67.42
62.09
55.94
49.39
43.03
37.37
32.70
29.03
26.07
23.27
20.02
15.82
10.54
4.58
-1.25
-5.98
-8.98
-10.26
-10.41
-10.29
-10.57
-11.43
-12.60
-13.62
-14.19
-14.30
-14.10
-13.81
-13.55
-13.28
-12.99
-12.68
-12.37
-12.12
-11.96
-11.83
-11.69
-11.53
-11.30
-11.01
-10.65
-10.20
-9.72
-9.26
-8.85
-8.43
-7.83
-6.79
-5.20
-3.15
-0.97
0.95
2.46
3.70
5.14
7.24
10.24
13.96
17.93
21.54
24.33
26.09
27.01
27.59
28.51
30.38
33.51
37.68
42.22
46.15
48.64
49.30
48.22
45.85
42.75
39.42
36.33
33.91
32.54
32.30
32.82
33.33
32.94
31.09
27.79
23.52
18.84
14.06
9.06
3.63
-2.15
-7.77
-12.34
-15.17
-16.13
-15.82
-15.29
-15.54
-17.01
-19.50
-22.37
-24.94
-26.89
-28.30
-29.53
-30.86
-32.28
-33.49
-34.13
-34.02
-33.35
-32.60
-32.28
-32.59
-33.40
-34.24
-34.59
-34.05
-32.51
-30.10
-27.10
-23.86
-20.70
-17.89
-15.59
-13.89
-12.76
-12.15
-12.01
-12.32
-13.03
-13.99
-14.96
-15.61
-15.70
-15.18
-14.12
-12.70
-10.94
-8.80
-6.16
-3.02
0.40
3.69
6.37
8.12
8.79
8.51
7.49
5.94
3.97
1.66
-0.90
-3.54
-5.98
-7.95
-9.14
-9.26
-8.06
-5.27
-0.79
5.12
11.80
18.20
23.11
25.53
24.94
21.45
15.66
8.49
0.91
-6.22
-12.17
-16.42
-18.66
-18.79
-16.95
-13.51
-9.02
-4.16
0.38
3.96
6.11
6.65
5.74
3.77
1.26
-1.28
-3.50
-5.13
-6.06
-6.27
-5.89
-5.22
-4.64
-4.42
-4.48
-4.36
-3.36
-0.90
3.20
8.46
13.89
18.37
20.96
21.26
19.43
16.11
12.09
8.18
4.96
2.69
1.34
0.66
0.37
0.25
0.21
0.30
0.55
0.86
1.05
0.95
0.44
-0.34
-1.19
-1.86
-2.31
-2.70
-3.28
-4.25
-5.66
-7.39
-9.18
-10.84
-12.18
-13.11
-13.57
-13.55
-13.09
-12.29
-11.30
-10.23
-9.13
-7.94
-6.58
-5.00
-3.23
-1.36
0.50
2.27
3.97
5.55
6.98
8.11
8.75
8.73
8.02
6.71
5.07
3.42
2.10
1.39
1.43
2.19
3.46
4.82
5.80
5.94
5.03
3.14
0.66
-1.94
-4.26
-6.16
-7.73
-9.25
-10.90
-12.59
-14.06
-14.89
-14.86
-14.01
-12.68
-11.39
-10.60
-10.66
-11.69
-13.72
-16.62
-20.27
-24.29
-28.02
-30.56
-31.04
-28.97
-24.51
-18.42
-11.83
-6.17
-2.51
-1.28
-2.27
-4.71
-7.72
-10.63
-13.14
-15.34
-18.16
-22.47
-28.74
-36.69
-45.35
-53.52
-60.27
-65.29
-68.79
-72.31
-77.23
-84.48
-93.93
-104.27
-113.50
-119.57
-120.84
-116.53
-108.40
-99.37
-93.26
-93.16
-100.21
-113.28
-129.48
-145.15
-148.56
-131.33
-89.77
-27.48
46.46
121.71
190.48
248.75
295.42
330.84
353.57
364.72
365.62
358.54
346.54
332.77
319.49
307.69
297.19
285.88
273.20
258.28
241.15
222.77
204.52
187.58
172.58
159.66
147.93
136.54
124.40
110.99
96.51
81.71
67.43
54.43
43.17
33.39
24.47
15.23
4.56
-8.18
-23.03
-39.47
-56.62
-73.59
-89.89
-105.49
-120.99
-137.21
-154.88
-174.62
-196.80
-221.38
-247.53
-273.27
-295.55
-311.00
-316.95
-312.56
-299.18
-279.69
-257.32
-234.33
-211.50
-188.65
-165.59
-142.89
-121.72
-103.22
-87.50
-73.52
-59.56
-44.20
-27.11
-9.12
8.24
23.51
35.90
45.58
53.47
60.77
68.52
77.01
85.53
92.39
95.23
91.57
79.58
58.82
30.76
-1.26
-32.68
-58.86
-76.60
-85.10
-85.93
-82.12
-76.63
-71.20
-65.98
-60.29
-53.66
-46.60
-40.46
-36.69
-35.84
-37.06
-38.53
-38.36
-35.75
-31.31
-26.72
-23.71
-22.93
-23.53
-23.51
-20.86
-14.68
-5.78
3.82
11.91
17.17
19.52
19.68
18.59
16.90
15.04
13.47
12.77
13.28
14.76
16.27
16.59
14.98
11.73
8.07
5.37
4.41
4.85
5.68
5.92
5.20
3.78
2.09
0.27
-1.84
-4.28
-6.48
-7.12
-4.84
0.84
8.98
17.44
23.93
27.08
26.99
24.83
22.02
19.49
17.44
15.63
13.91
12.44
11.72
12.16
13.86
16.49
19.45
22.03
23.64
23.86
22.57
19.90
16.27
12.31
8.65
5.80
4.00
3.31
3.59
4.59
6.05
7.73
9.40
10.84
11.89
12.52
12.85
13.05
13.25
13.42
13.39
13.02
12.35
11.61
11.10
11.02
11.27
11.55
11.50
10.95
9.91
8.55
6.99
5.23
3.16
0.65
-2.25
-5.23
-7.80
-9.32
-9.35
-7.75
-4.91
-1.54
1.60
4.08
5.93
7.48
9.07
10.70
12.12
13.03
13.32
13.22
13.03
12.98
13.01
12.94
12.64
12.20
11.86
11.89
12.32
12.93
13.34
13.16
12.18
10.44
8.22
5.98
4.22
3.31
3.38
4.14
5.02
5.44
5.00
3.73
1.93
0.02
-1.81
-3.60
-5.50
-7.58
-9.68
-11.44
-12.40
-12.30
-11.04
-8.76
-5.71
-2.21
1.36
4.62
7.18
8.77
9.36
9.19
8.60
7.95
7.50
7.38
7.64
8.29
9.30
10.46
11.48
12.01
11.93
11.43
10.91
10.87
11.52
12.71
13.95
14.73
14.75
14.03
12.84
11.43
9.93
8.35
6.64
4.80
2.91
1.13
-0.27
-1.02
-0.87
0.22
1.96
3.65
4.43
3.67
1.32
-1.85
-4.40
-4.84
-2.22
3.17
9.86
15.61
18.38
17.23
12.83
7.23
2.91
1.92
5.03
11.62
20.03
27.90
32.35
30.02
17.94
-5.18
-37.51
-73.63
-105.88
-127.58
-136.42
-135.89
-133.78
-137.73
-150.68
-168.61
-182.30
-182.04
-162.42
-124.54
-74.30
-18.91
36.79
91.45
145.04
195.84
238.65
266.06
271.80
254.37
217.29
166.81
109.15
48.19
-13.70
-72.93
-122.22
-151.33
-151.15
-119.43
-63.92
0.38
56.72
93.70
108.84
108.13
100.05
91.79
86.16
79.53
65.25
37.85
-3.47
-56.02
-114.81
-173.81
-227.00
-269.33
-297.83
-310.56
-308.11
-291.77
-262.68
-220.64
-164.96
-96.36
-17.49
58.48
120.92
160.36
173.50
164.04
140.77
113.55
89.09
69.09
50.59
30.12
4.61
-26.03
-60.40
-96.71
-133.21
-167.38
-194.78
-209.72
-206.43
-183.28
-142.14
-89.55
-34.53
14.16
50.64
73.33
84.24
87.90
88.71
92.33
103.44
125.29
159.11
204.69
261.58
329.86
409.98
487.07
545.47
572.83
566.03
530.15
472.20
396.26
303.85
197.92
86.28
-15.56
-90.06
-124.81
-119.22
-85.91
-45.55
-18.05
-14.56
-34.57
-66.79
-97.26
-116.45
-122.72
-120.77
-116.60
-113.31
-109.85
-103.73
-92.90
-78.48
-64.22
-54.37
-51.41
-54.52
-60.27
-64.54
-64.92
-61.33
-56.02
-52.45
-53.31
-59.32
-68.86
-78.84
-86.12
-89.04
-87.76
-83.94
-79.95
-77.83
-78.64
-82.22
-87.03
-90.50
-89.92
-83.27
-70.23
-52.51
-33.17
-15.48
-1.51
8.41
15.33
20.60
24.98
28.38
30.19
29.94
27.91
25.09
22.80
22.11
23.26
25.60
27.87
28.70
27.33
23.96
19.70
16.00
13.75
12.78
12.16
10.90
8.69
6.04
3.80
2.53
2.14
2.19
2.35
2.70
3.52
4.88
6.41
7.50
7.71
6.99
5.68
4.17
2.80
1.85
1.64
2.33
3.75
5.24
5.96
5.35
3.58
1.48
-0.07
-0.64
-0.56
-0.58
-1.26
-2.47
-3.64
-4.31
-4.54
-5.12
-6.92
-10.26
-14.52
-18.44
-20.66
-20.50
-18.21
-14.78
-11.29
-8.41
-6.17
-4.07
-1.58
1.55
5.16
8.70
11.51
13.05
13.19
12.31
10.97
9.71
8.62
7.39
5.65
3.30
0.75
-1.27
-2.26
-2.25
-1.82
-1.67
-1.97
-2.39
-2.17
-0.68
2.35
6.21
9.81
12.41
14.14
15.75
17.70
19.96
21.87
23.02
23.20
22.78
22.60
23.42
25.44
27.75
29.12
29.04
28.70
29.38
32.35
38.05
46.23
55.80
64.05
68.79
69.44
69.06
69.92
73.57
80.46
91.07
105.47
121.04
135.07
146.37
158.70
172.65
187.02
199.22
208.32
214.47
214.69
206.78
191.33
177.10
167.73
163.73
161.87
159.70
153.43
134.20
94.79
33.58
-38.27
-114.25
-190.70
-267.95
-345.28
-390.98
-381.15
-314.21
-255.13
-221.04
-215.24
-219.34
-228.65
-240.44
-256.34
-280.61
-312.53
-344.59
-359.83
-353.07
-328.43
-297.18
-267.84
-250.60
-254.50
-282.40
-331.00
-389.13
-452.26
-517.96
-583.57
-603.96
-550.69
-429.86
-279.37
-141.60
-35.97
37.17
90.24
136.33
183.65
226.05
252.02
254.66
237.34
212.59
191.30
178.57
172.45
168.26
157.80
137.51
111.51
87.96
76.83
82.09
100.68
125.41
149.23
164.80
168.96
163.11
151.16
136.56
120.92
104.03
85.16
64.24
40.63
14.96
-10.39
-32.30
-47.93
-54.66
-50.64
-35.35
-8.31
30.31
80.26
141.26
212.47
283.91
344.33
384.97
402.97
400.46
380.38
343.53
289.54
219.44
137.84
54.51
-19.46
-76.33
-114.70
-138.74
-154.47
-165.48
-171.87
-171.70
-163.08
-147.10
-126.90
-107.92
-94.42
-87.96
-87.34
-90.53
-96.28
-103.97
-113.55
-124.80
-137.08
-149.24
-160.15
-168.42
-173.55
-175.70
-175.10
-172.22
-167.21
-159.62
-148.25
-135.32
-121.08
-105.57
-88.92
-71.23
-52.64
-33.22
-13.20
7.09
27.12
46.91
66.40
85.79
105.70
126.92
149.95
174.22
198.22
219.82
237.57
250.43
257.74
259.04
253.82
242.02
224.53
203.38
181.30
161.13
144.33
130.67
118.76
106.95
94.44
81.26
67.81
54.07
39.61
23.95
7.40
-8.65
-22.27
-31.70
-36.05
-35.68
-31.90
-26.49
-21.46
-18.74
-19.32
-22.87
-27.36
-29.99
-28.62
-23.10
-15.65
-9.71
-7.90
-10.75
-16.56
-22.59
-26.62
-27.82
-26.38
-23.08
-18.50
-13.19
-7.62
-2.19
3.14
8.76
14.92
21.06
25.49
26.17
22.17
14.38
5.31
-2.10
-6.04
-6.47
-4.71
-2.64
-1.73
-2.67
-5.44
-9.48
-13.93
-18.03
-21.20
-23.41
-25.21
-27.23
-29.72
-32.38
-34.59
-35.94
-36.31
-35.85
-34.46
-31.67
-26.89
-19.92
-11.43
-2.87
3.92
7.17
5.92
0.34
-7.98
-16.22
-21.21
-20.67
-14.25
-3.77
7.63
16.97
22.68
24.70
23.90
20.88
15.78
8.70
0.31
-7.85
-13.81
-16.13
-14.63
-10.43
-5.31
-0.89
2.02
3.40
3.80
3.93
4.43
5.91
8.71
12.53
16.35
18.83
18.99
16.90
13.65
10.64
8.66
7.60
6.40
4.04
0.42
-3.42
-5.72
-5.17
-1.72
3.27
7.96
11.07
12.57
13.35
14.07
14.43
13.41
10.27
5.71
2.01
1.72
5.88
13.53
22.41
30.56
37.42
43.61
49.83
56.38
62.51
67.42
71.43
75.98
82.48
90.78
98.91
104.39
107.12
108.68
111.05
114.42
116.41
114.13
106.93
97.56
90.40
88.79
90.67
89.53
78.58
55.76
25.85
-1.90
-19.49
-32.60
-48.65
-74.79
-112.20
-154.65
-193.06
-221.01
-237.61
-246.73
-253.79
-260.90
-267.88
-272.92
-274.14
-271.12
-264.71
-256.61
-248.48
-241.75
-234.95
-226.45
-214.91
-199.80
-181.74
-162.26
-143.25
-126.48
-113.20
-102.50
-93.36
-84.85
-76.34
-67.67
-58.70
-48.79
-36.25
-23.70
-10.71
3.48
19.41
37.07
55.82
74.71
92.79
109.47
124.49
138.99
154.18
171.29
191.14
213.52
236.69
257.29
271.15
274.58
266.43
248.01
222.74
194.89
167.89
143.32
120.87
99.29
77.47
55.59
34.58
15.44
-1.35
-16.27
-30.44
-45.18
-61.45
-79.76
-100.13
-122.54
-146.81
-172.10
-196.40
-216.57
-229.20
-232.12
-225.53
-211.98
-195.18
-178.16
-161.77
-144.53
-123.93
-98.16
-67.42
-33.90
-0.78
29.26
54.87
76.10
93.71
108.50
120.92
131.05
138.87
144.45
148.03
150.00
150.90
151.29
151.63
152.18
152.74
152.72
151.32
147.91
142.28
134.84
126.29
117.34
108.36
99.32
90.01
80.45
70.94
62.04
54.28
47.87
42.60
37.95
33.35
28.37
22.88
17.00
11.08
5.54
0.74
-3.17
-6.31
-9.00
-11.63
-14.42
-17.25
-19.76
-21.44
-21.93
-21.13
-19.26
-16.78
-14.24
-12.07
-10.53
-9.66
-9.29
-9.19
-9.11
-8.95
-8.73
-8.59
-8.63
-8.79
-8.88
-8.63
-7.87
-6.66
-5.25
-3.93
-2.87
-2.01
-1.16
-0.18
0.91
1.90
2.51
2.68
2.57
2.47
2.62
2.98
3.31
3.27
2.64
1.39
-0.35
-2.43
-4.80
-7.52
-10.74
-14.55
-19.00
-23.99
-29.29
-34.49
-39.11
-42.63
-44.62
-44.90
-43.44
-40.33
-35.71
-29.81
-23.06
-16.10
-9.65
-4.19
0.28
4.31
8.71
14.03
20.21
26.48
31.63
34.60
34.83
32.44
28.10
22.69
17.02
11.60
6.67
2.23
-1.75
-5.15
-7.66
-8.73
-7.98
-5.36
-1.38
3.06
7.12
10.29
12.62
14.40
15.70
16.06
14.56
10.37
3.44
-5.25
-13.86
-20.48
-23.95
-24.22
-22.24
-19.32
-16.54
-14.39
-12.88
-11.84
-11.26
-11.32
-12.18
-13.73
-15.43
-16.32
-15.42
-12.06
-6.20
1.53
10.08
18.39
25.71
31.89
37.31
42.59
48.26
54.48
61.02
67.37
73.07
77.93
82.22
86.57
91.67
97.81
104.49
110.26
113.16
111.35
103.96
91.39
75.11
57.04
38.98
22.24
7.74
-3.83
-12.12
-17.45
-20.99
-24.50
-29.45
-36.08
-43.02
-47.82
-48.43
-44.50
-37.88
-31.70
-28.73
-29.86
-33.89
-38.49
-41.86
-43.84
-45.92
-50.05
-57.37
-67.36
-78.10
-87.33
-93.55
-96.59
-97.22
-96.40
-94.61
-91.76
-87.39
-81.01
-72.44
-61.75
-49.24
-35.42
-20.84
-6.19
7.54
19.51
29.37
37.47
44.81
52.57
62.04
74.22
89.74
108.08
128.33
149.39
170.43
191.44
213.24
237.17
264.31
293.46
319.28
334.70
333.62
313.87
278.38
233.50
186.58
143.66
106.63
71.82
34.50
-8.44
-56.83
-108.07
-159.98
-211.42
-261.47
-310.41
-360.97
-414.62
-470.71
-526.39
-577.81
-622.96
-661.13
-691.28
-694.15
-655.69
-572.05
-454.50
-324.10
-201.26
-100.72
-36.12
-3.59
3.11
-11.20
-39.55
-73.23
-103.27
-114.70
-101.97
-69.42
-27.22
12.40
40.14
54.22
58.09
58.23
59.93
65.18
74.59
88.74
106.17
120.56
125.33
116.07
93.26
61.93
28.31
-2.55
-28.08
-49.08
-67.72
-84.45
-97.69
-105.01
-105.43
-101.19
-96.33
-94.03
-95.30
-98.76
-101.63
-101.91
-99.19
-94.50
-89.73
-86.07
-83.45
-80.98
-77.45
-71.94
-64.34
-55.11
-45.01
-34.54
-23.57
-11.42
2.81
19.64
39.07
60.49
83.00
105.84
128.62
151.52
175.21
200.77
229.27
261.19
295.61
329.68
358.95
378.59
385.21
378.20
360.10
335.40
308.79
283.49
260.68
239.98
220.54
201.87
184.05
167.35
151.73
136.75
121.83
106.69
91.57
77.19
64.46
54.08
46.29
40.78
36.85
33.64
30.48
27.12
23.72
20.69
18.40
17.01
16.44
16.38
16.39
16.07
15.19
13.77
12.10
10.70
10.17
10.99
13.36
17.21
22.28
28.31
34.85
41.13
46.20
49.20
49.92
48.97
47.51
46.67
47.29
49.19
51.32
52.46
51.92
49.86
47.00
44.01
41.10
38.92
37.71
37.05
35.74
32.17
25.28
15.25
3.66
-7.29
-14.36
-15.78
-11.77
-3.98
5.72
16.24
27.48
39.74
53.30
70.38
93.18
122.97
158.76
196.84
231.43
256.62
268.63
255.45
213.22
146.73
68.13
-8.59
-73.58
-123.42
-158.85
-181.94
-194.86
-197.88
-191.91
-179.16
-163.05
-147.11
-134.10
-125.44
-120.69
-118.79
-117.30
-114.53
-110.00
-104.52
-99.46
-96.37
-95.81
-97.38
-100.32
-103.08
-104.68
-105.41
-107.11
-109.06
-112.20
-117.18
-124.06
-132.53
-141.98
-152.31
-164.11
-178.10
-194.36
-212.15
-229.39
-243.35
-251.65
-252.54
-244.95
-228.27
-202.28
-167.57
-126.62
-83.59
-43.67
-11.73
9.37
19.83
22.62
22.16
22.47
25.54
31.22
37.79
42.99
45.15
43.86
39.89
34.66
29.56
25.28
21.87
18.87
15.68
11.70
6.31
-1.29
-12.07
-26.90
-46.11
-69.19
-94.73
-120.75
-145.02
-165.35
-179.66
-186.09
-183.35
-171.08
-150.24
-122.97
-91.87
-59.09
-25.49
9.38
46.47
86.02
126.57
164.96
197.16
219.79
231.30
232.34
225.21
212.72
197.13
179.69
160.79
140.73
120.24
100.59
83.22
69.08
58.24
49.96
43.12
36.85
30.85
25.34
20.72
17.10
14.19
11.39
8.25
4.90
2.05
0.83
2.17
6.45
13.22
21.41
29.78
37.30
43.47
48.37
52.47
56.43
60.70
65.25
69.42
71.89
71.06
65.57
54.83
39.39
20.92
1.78
-15.62
-29.45
-38.89
-44.22
-46.57
-47.57
-48.89
-51.83
-57.10
-64.79
-74.42
-85.12
-95.73
-104.93
-111.26
-113.36
-110.20
-101.48
-87.85
-70.84
-52.45
-34.58
-18.41
-4.22
8.36
19.91
30.81
40.99
50.17
57.96
64.13
68.52
70.82
70.51
66.98
59.87
49.52
37.18
24.72
14.00
6.10
0.90
-2.89
-7.04
-12.99
-21.22
-31.11
-41.27
-50.17
-56.58
-59.80
-59.53
-55.68
-48.25
-37.27
-22.94
-5.78
13.34
33.25
52.60
70.00
84.25
94.61
100.90
103.57
103.44
101.30
97.50
91.82
83.59
72.30
58.10
42.15
26.37
12.64
2.07
-5.50
-11.39
-17.31
-24.57
-33.49
-43.44
-53.27
-61.99
-69.16
-75.02
-80.12
-84.88
-89.33
-93.04
-95.36
-95.66
-93.44
-88.29
-79.77
-67.43
-51.23
-31.92
-11.29
8.01
23.30
32.92
36.87
36.80
35.10
33.84
33.92
34.94
35.82
35.54
33.73
30.74
27.41
24.68
23.42
24.28
27.60
33.21
40.36
47.71
53.64
56.82
56.55
52.95
46.67
38.52
29.24
19.53
10.11
1.97
-3.79
-6.20
-4.77
0.25
8.00
17.17
26.34
34.31
40.18
43.55
44.60
44.10
43.23
43.12
44.26
46.13
47.26
45.85
40.61
31.35
19.08
5.44
-8.03
-20.48
-31.89
-42.73
-53.61
-64.99
-77.19
-90.35
-104.43
-118.91
-132.65
-143.98
-151.11
-152.79
-148.72
-139.66
-127.17
-113.07
-99.00
-86.07
-74.72
-64.77
-55.53
-46.19
-36.22
-25.67
-15.35
-6.45
-0.03
3.65
5.34
6.49
8.49
12.09
17.13
22.88
28.69
34.39
40.31
46.82
53.84
60.65
66.14
69.36
69.93
68.16
64.71
60.26
55.24
49.87
44.34
38.95
34.04
29.74
25.89
22.03
17.61
12.29
6.08
-0.60
-7.12
-12.82
-17.11
-19.58
-19.93
-17.99
-13.83
-7.83
-0.78
6.31
12.48
17.11
20.05
21.51
21.88
21.43
20.29
18.57
16.45
14.33
12.64
11.65
11.24
10.96
10.25
8.83
6.82
4.74
3.23
2.74
3.46
5.21
7.63
10.35
13.01
15.37
17.29
18.68
19.47
19.60
18.95
17.31
14.46
10.22
4.66
-1.83
-8.51
-14.50
-19.06
-21.86
-23.08
-23.22
-22.79
-21.95
-20.42
-17.67
-13.32
-7.49
-0.88
5.50
10.72
14.31
16.33
17.18
17.40
17.40
17.50
17.98
19.12
21.18
24.21
27.94
31.76
34.96
36.94
37.39
36.26
33.72
30.03
25.53
20.63
15.73
11.09
6.73
2.43
-2.11
-7.07
-12.46
-18.18
-24.16
-30.35
-36.59
-42.41
-47.04
-49.73
-50.26
-49.23
-47.90
-47.59
-48.98
-51.83
-55.25
-58.30
-60.40
-61.31
-60.83
-58.44
-53.54
-45.95
-36.37
-26.47
-18.38
-13.89
-13.76
-17.55
-24.05
-31.94
-40.29
-48.74
-57.18
-65.41
-72.87
-78.75
-82.54
-84.50
-85.87
-88.49
-93.97
-102.78
-113.74
-124.20
-130.83
-130.72
-122.17
-105.04
-80.50
-50.52
-17.46
16.20
48.03
75.74
97.45
112.08
119.59
121.06
118.51
114.25
110.40
108.38
108.81
111.67
116.66
123.38
131.30
139.54
146.83
151.75
153.25
151.22
146.70
141.64
138.14
137.71
140.77
146.62
153.75
160.31
164.54
165.12
161.47
153.93
143.72
132.68
122.64
114.82
109.33
105.22
101.08
95.65
88.39
79.46
69.36
58.43
46.67
34.06
20.91
8.00
-3.79
-14.07
-23.28
-32.48
-42.56
-53.40
-63.51
-70.58
-72.42
-67.81
-56.66
-39.70
-17.93
7.43
34.62
60.84
82.26
94.72
95.04
82.16
57.58
24.85
-11.66
-47.88
-80.89
-108.80
-130.36
-144.66
-151.21
-150.44
-144.00
-134.58
-125.04
-117.38
-112.02
-107.86
-103.28
-97.38
-90.75
-85.29
-83.38
-86.36
-93.89
-103.92
-113.45
-119.85
-121.77
-119.30
-113.29
-104.56
-93.54
-80.62
-66.93
-54.80
-47.36
-47.15
-54.74
-68.00
-82.68
-94.06
-98.76
-95.69
-85.97
-71.93
-56.01
-40.06
-25.26
-12.40
-2.15
4.89
8.34
8.36
5.81
2.53
0.89
3.04
10.19
22.05
37.01
52.90
68.02
81.70
94.11
105.50
115.61
123.57
128.46
129.81
127.70
122.33
113.48
100.40
82.46
60.26
36.26
14.28
-1.87
-10.13
-10.98
-6.95
-1.03
4.97
11.13
18.89
29.65
43.64
59.54
75.16
88.52
98.88
106.87
113.86
120.76
127.07
130.63
128.26
117.21
96.33
66.55
30.14
-10.60
-54.24
-99.98
-146.22
-189.09
-222.41
-239.55
-236.52
-214.45
-179.66
-141.32
-107.78
-83.82
-70.34
-65.73
-67.66
-73.81
-81.08
-84.49
-77.31
-53.33
-10.44
46.84
107.85
159.68
192.73
204.62
200.46
189.23
178.72
171.91
166.70
158.63
144.22
122.74
95.92
66.02
34.33
1.25
-32.45
-64.43
-91.04
-108.88
-116.70
-115.93
-109.95
-102.35
-95.60
-90.70
-87.69
-86.32
-86.30
-87.09
-87.57
-86.27
-81.97
-74.40
-64.57
-54.39
-45.75
-39.61
-35.59
-32.33
-28.49
-23.52
-18.10
-13.73
-11.94
-13.42
-17.74
-23.68
-29.88
-35.47
-40.34
-45.00
-50.16
-56.39
-63.85
-72.15
-80.39
-87.30
-91.59
-92.26
-88.97
-82.11
-72.57
-61.39
-49.30
-36.73
-23.95
-11.37
0.32
10.40
18.40
24.39
28.92
32.68
36.06
38.93
40.75
40.93
39.40
36.89
34.86
34.91
38.00
43.75
50.31
55.03
55.67
51.45
43.50
34.28
26.43
21.69
20.37
21.53
23.64
25.13
24.85
22.18
17.13
10.42
3.42
-2.17
-4.94
-4.46
-1.54
2.22
5.20
6.57
6.59
6.21
6.41
7.63
9.70
12.09
14.36
16.36
18.08
19.49
20.35
20.30
19.12
17.00
14.37
11.73
9.29
6.97
4.60
2.30
0.48
-0.31
0.22
1.84
3.94
5.89
7.30
8.11
8.37
8.05
6.92
4.69
1.17
-3.50
-8.81
-13.96
-18.06
-20.48
-21.31
-21.51
-22.73
-26.57
-33.63
-43.12
-53.21
-62.09
-68.92
-73.94
-77.59
-79.42
-77.79
-70.53
-56.43
-36.37
-13.15
9.60
29.13
44.42
55.92
64.62
70.93
74.54
74.77
71.30
64.55
55.65
46.23
38.27
33.91
35.27
43.86
60.00
82.14
106.64
128.23
140.94
139.53
120.96
85.60
37.70
-15.21
-64.06
-100.84
-121.11
-125.48
-119.33
-110.59
-106.67
-111.58
-124.60
-140.86
-153.68
-157.42
-149.69
-131.98
-108.60
-84.51
-63.36
-46.50
-33.23
-22.09
-12.17
-3.61
2.85
6.91
9.39
11.98
16.12
21.75
26.86
28.41
24.09
13.97
0.93
-10.40
-15.70
-12.88
-2.97
10.52
23.17
31.37
33.46
29.90
22.81
15.14
9.85
9.15
13.90
23.26
35.04
46.35
54.83
59.44
60.70
60.25
59.87
60.66
62.73
65.33
67.41
68.18
67.39
65.25
62.05
57.84
52.35
45.22
36.37
26.38
16.57
8.53
3.38
1.10
0.29
-1.46
-6.52
-16.05
-29.35
-43.85
-56.07
-62.89
-62.72
-56.00
-44.88
-32.27
-20.81
-12.09
-6.53
-3.64
-2.53
-2.23
-1.84
-0.55
2.27
6.86
12.85
19.30
25.02
29.09
31.26
31.94
31.91
31.84
31.89
31.69
30.68
28.59
25.58
22.13
18.59
14.91
10.56
4.94
-2.21
-10.52
-19.25
-27.64
-35.41
-42.81
-50.41
-58.71
-67.71
-76.90
-85.38
-92.09
-96.05
-96.48
-92.86
-84.99
-73.15
-58.00
-40.59
-22.09
-3.49
14.59
32.09
49.32
66.62
84.01
100.99
116.71
130.29
141.07
148.54
152.12
151.01
144.57
133.04
118.11
102.67
89.77
81.12
76.12
72.15
66.01
55.64
41.17
24.53
8.12
-6.50
-19.16
-30.49
-40.95
-50.05
-56.42
-58.49
-55.50
-47.97
-37.54
-26.36
-16.24
-8.15
-2.09
2.47
6.06
8.91
10.85
11.71
11.75
11.99
14.12
20.05
31.11
47.42
67.60
89.02
108.66
123.96
133.60
137.81
137.92
135.53
131.49
125.22
114.78
97.74
72.46
38.87
-1.61
-46.69
-93.95
-140.82
-184.14
-219.93
-243.94
-253.11
-247.28
-229.90
-207.09
-185.12
-167.70
-154.68
-142.86
-128.52
-109.93
-88.43
-67.60
-51.19
-41.18
-37.25
-37.47
-39.75
-43.03
-47.38
-53.44
-61.46
-70.85
-80.25
-87.75
-91.30
-89.04
-79.73
-63.44
-41.88
-18.29
3.66
21.23
33.70
42.35
49.42
56.51
63.57
69.00
70.78
67.95
61.21
52.63
44.51
38.19
33.62
29.63
24.81
18.52
11.46
5.30
1.98
2.71
7.34
14.52
22.32
29.19
34.52
38.67
42.43
46.36
50.29
53.42
54.75
53.62
50.13
45.07
39.56
34.55
30.63
27.93
26.33
25.62
25.51
25.67
25.68
25.13
23.85
21.97
19.95
18.33
17.31
16.53
15.18
12.33
7.48
0.86
-6.62
-13.74
-19.53
-23.59
-26.14
-27.77
-29.02
-30.17
-31.07
-31.45
-31.10
-30.15
-28.99
-28.18
-28.11
-28.88
-30.29
-32.07
-34.07
-36.31
-38.95
-42.03
-45.34
-48.37
-50.46
-50.95
-49.42
-45.74
-40.17
-33.19
-25.50
-17.72
-10.32
-3.39
3.21
9.67
15.83
21.17
24.96
26.74
26.67
25.56
24.51
24.36
25.29
26.80
28.06
28.32
27.30
25.19
22.44
19.53
16.80
14.46
12.68
11.62
11.52
12.51
14.58
17.51
20.81
23.87
26.12
27.18
26.95
25.61
23.48
20.96
18.39
16.00
13.93
12.18
10.71
9.45
8.45
7.86
7.93
8.86
10.62
12.87
14.98
16.29
16.34
15.01
12.55
9.41
6.10
3.00
0.38
-1.62
-2.86
-3.23
-2.68
-1.33
0.52
2.41
3.81
4.36
3.98
2.94
1.69
0.70
0.12
-0.21
-0.69
-1.72
-3.41
-5.55
-7.72
-9.58
-10.96
-11.87
-12.40
-12.56
-12.24
-11.35
-9.89
-8.08
-6.15
-4.16
-2.00
0.58
3.69
7.15
10.48
13.16
14.83
15.52
15.54
15.31
15.10
14.98
14.89
14.70
14.33
13.70
12.71
11.27
9.34
7.05
4.73
2.81
1.60
1.10
1.01
0.79
0.01
-1.51
-3.64
-6.03
-8.41
-10.70
-12.96
-15.25
-17.43
-19.11
-19.87
-19.50
-18.22
-16.64
-15.49
-15.27
-16.03
-17.44
-18.97
-20.18
-20.82
-20.84
-20.20
-18.76
-16.35
-12.81
-8.30
-3.22
1.71
5.85
8.74
10.25
10.57
10.03
9.00
7.74
6.43
5.19
4.10
3.26
2.74
2.52
2.53
2.57
2.47
2.11
1.51
0.81
0.24
-0.04
-0.01
0.19
0.35
0.31
0.08
-0.23
-0.47
-0.60
-0.73
-1.07
-1.79
-2.91
-4.30
-5.75
-7.12
-8.40
-9.73
-11.25
-12.96
-14.57
-15.62
-15.59
-14.16
-11.33
-7.47
-3.18
0.91
4.28
6.66
8.05
8.61
8.63
8.43
8.23
8.07
7.84
7.26
6.06
4.13
1.58
-1.20
-3.69
-5.38
-5.94
-5.39
-4.04
-2.51
-1.48
-1.44
-2.47
-4.13
-5.62
-6.08
-4.98
-2.35
1.18
4.64
7.07
7.91
7.20
5.62
4.20
3.92
5.42
8.62
12.74
16.45
18.35
17.38
13.27
6.69
-0.73
-6.79
-9.29
-6.66
1.38
13.66
27.98
41.89
53.64
62.62
69.22
74.05
77.27
78.38
76.69
72.19
65.99
60.21
57.07
57.86
62.25
68.53
74.47
78.21
78.94
76.94
72.98
67.76
61.40
53.53
43.50
30.90
15.87
-0.81
-17.93
-34.26
-48.92
-61.59
-72.39
-81.52
-88.88
-93.98
-96.14
-94.93
-90.71
-84.74
-78.87
-74.85
-73.44
-74.12
-75.19
-74.58
-70.68
-62.93
-51.71
-37.89
-22.30
-5.53
11.92
29.27
45.32
58.67
68.20
73.56
75.33
74.74
73.15
71.53
70.21
69.08
67.80
66.17
64.21
62.15
60.25
58.61
57.00
54.76
50.92
44.44
34.56
21.11
4.71
-13.38
-31.61
-48.38
-62.44
-73.02
-79.88
-83.27
-83.86
-82.61
-80.62
-78.82
-77.84
-77.83
-78.59
-79.58
-80.12
-79.49
-76.99
-72.19
-65.11
-56.37
-47.14
-38.76
-32.25
-27.95
-25.40
-23.74
-22.11
-20.06
-17.70
-15.55
-14.29
-14.43
-16.11
-18.86
-21.48
-22.15
-18.85
-10.10
4.40
23.31
44.06
63.59
79.47
90.50
96.76
99.03
98.10
94.25
87.31
77.11
63.95
48.81
33.23
18.80
6.75
-2.34
-8.49
-12.11
-13.66
-13.57
-12.17
-9.88
-7.28
-5.15
-4.34
-5.43
-8.63
-13.69
-20.00
-26.76
-33.20
-38.75
-43.10
-46.26
-48.50
-50.24
-51.84
-53.44
-54.83
-55.58
-55.30
-53.79
-51.25
-48.14
-44.96
-42.02
-39.35
-36.77
-34.07
-31.16
-28.09
-25.01
-22.08
-19.40
-17.06
-15.12
-13.66
-12.72
-12.32
-12.45
-13.07
-14.12
-15.53
-17.16
-18.85
-20.48
-22.00
-23.52
-25.22
-27.30
-29.85
-32.90
-36.36
-40.18
-44.30
-48.68
-53.14
-57.33
-60.69
-62.52
-62.20
-59.28
-53.40
-44.27
-31.50
-14.84
5.58
28.82
53.10
75.97
95.02
108.52
115.86
117.53
114.73
108.82
100.86
91.55
81.31
70.42
59.17
47.75
36.37
25.13
14.24
3.99
-5.29
-13.37
-20.19
-25.90
-30.75
-35.02
-38.97
-42.91
-47.17
-52.07
-57.72
-63.85
-69.80
-74.73
-77.93
-79.24
-79.15
-78.67
-78.87
-80.44
-83.29
-86.48
-88.47
-87.58
-82.59
-73.06
-59.47
-42.91
-24.72
-6.05
12.16
29.15
44.14
56.28
64.86
69.62
71.00
69.99
67.87
65.74
64.19
63.30
62.78
62.21
61.29
59.84
57.80
55.20
52.15
48.85
45.51
42.38
39.53
36.89
34.25
31.30
27.85
23.85
19.39
14.67
9.86
5.10
0.47
-3.99
-8.25
-12.34
-16.32
-20.31
-24.40
-28.54
-32.42
-35.49
-37.04
-36.45
-33.47
-28.33
-21.80
-14.87
-8.47
-3.12
1.23
5.08
9.05
13.52
18.38
23.03
26.60
28.26
27.48
24.30
19.31
13.57
8.30
4.53
2.70
2.59
3.34
3.79
2.85
-0.11
-5.12
-11.59
-18.52
-24.87
-29.76
-32.69
-33.47
-32.00
-28.08
-21.43
-12.01
-0.54
11.39
21.53
27.88
29.50
26.98
22.16
17.26
14.03
13.24
14.79
17.97
21.79
25.11
26.71
25.62
21.56
15.36
8.90
4.40
3.42
6.12
11.23
16.80
21.10
23.39
23.88
23.13
21.50
18.76
14.39
8.07
0.13
-8.42
-16.26
-22.27
-25.95
-27.45
-27.35
-26.41
-25.29
-24.44
-24.06
-24.06
-24.11
-23.85
-23.05
-21.85
-20.81
-20.63
-21.83
-24.47
-28.02
-31.63
-34.61
-36.69
-38.22
-39.97
-42.60
-46.32
-50.59
-54.32
-56.20
-55.21
-51.01
-43.99
-35.13
-25.59
-16.40
-8.07
-0.65
6.17
12.77
19.29
25.44
30.56
33.83
34.70
33.22
30.20
27.01
25.09
25.36
27.90
31.91
36.16
39.50
41.31
41.61
40.80
39.29
37.22
34.49
30.89
26.47
21.52
16.50
11.78
7.48
3.53
-0.13
-3.38
-5.92
-7.48
-8.09
-8.39
-9.40
-12.16
-17.13
-23.76
-30.54
-35.43
-36.70
-33.63
-26.85
-18.02
-9.17
-1.80
3.51
7.13
9.87
12.38
14.86
17.10
18.82
20.02
21.03
22.29
24.04
26.08
27.89
28.86
28.72
27.63
26.14
24.78
23.84
23.14
22.23
20.71
18.48
15.89
13.56
12.00
11.34
11.18
10.81
9.54
7.03
3.44
-0.71
-4.89
-8.70
-12.03
-14.98
-17.72
-20.42
-23.21
-26.20
-29.43
-32.78
-35.90
-38.20
-39.10
-38.17
-35.33
-30.79
-24.95
-18.27
-11.15
-3.97
2.92
9.28
14.96
19.99
24.44
28.35
31.60
33.99
35.33
35.60
35.05
34.09
33.14
32.44
32.01
31.75
31.52
31.21
30.73
29.95
28.72
26.94
24.60
21.87
19.06
16.51
14.40
12.70
11.16
9.43
7.29
4.74
1.96
-0.81
-3.41
-5.88
-8.36
-11.11
-14.35
-18.21
-22.71
-27.64
-32.49
-36.52
-38.81
-38.58
-35.43
-29.56
-21.78
-13.16
-4.71
2.95
9.66
15.58
20.93
25.78
30.00
33.30
35.40
36.11
35.33
33.17
29.98
26.41
23.31
21.46
21.35
22.87
25.38
27.91
29.54
29.71
28.40
26.00
23.09
20.16
17.52
15.28
13.47
12.09
11.11
10.44
9.89
9.17
7.99
6.19
3.83
1.17
-1.48
-3.89
-6.04
-8.14
-10.50
-13.45
-17.17
-21.64
-26.52
-31.15
-34.62
-35.99
-34.62
-30.44
-24.02
-16.35
-8.58
-1.52
4.35
9.01
12.58
15.28
17.26
18.62
19.44
19.83
19.99
20.09
20.33
20.81
21.47
22.08
22.36
22.09
21.30
20.33
19.63
19.57
20.13
20.86
21.12
20.35
18.45
15.78
13.01
10.69
9.01
7.63
5.90
3.29
-0.43
-4.91
-9.53
-13.66
-16.95
-19.49
-21.61
-23.72
-26.05
-28.70
-31.64
-34.84
-38.20
-41.47
-44.12
-45.40
-44.54
-41.12
-35.26
-27.58
-19.07
-10.69
-3.18
3.12
8.19
12.22
15.52
18.33
20.79
22.86
24.36
25.13
25.18
24.75
24.25
24.09
24.37
24.86
25.12
24.83
23.97
22.87
21.96
21.53
21.54
21.64
21.33
20.28
18.46
16.19
13.93
12.12
10.96
10.27
9.60
8.37
6.16
2.92
-1.01
-5.07
-8.75
-11.82
-14.38
-16.74
-19.18
-21.82
-24.61
-27.44
-30.23
-32.99
-35.67
-37.99
-39.44
-39.33
-37.16
-32.82
-26.73
-19.67
-12.57
-6.13
-0.71
3.69
7.20
10.03
12.19
13.64
14.31
14.32
13.96
13.71
13.92
14.70
15.77
16.49
16.23
14.65
11.95
8.87
6.31
4.93
4.84
5.58
6.37
6.48
5.52
3.51
0.73
-2.42
-5.54
-8.27
-10.26
-11.11
-10.52
-8.45
-5.16
-1.28
2.45
5.31
6.85
6.94
5.72
3.45
0.48
-2.86
-6.26
-9.53
-12.61
-15.57
-18.58
-21.71
-24.83
-27.52
-29.16
-29.12
-26.97
-22.66
-16.54
-9.29
-1.72
5.36
11.40
16.10
19.49
21.82
23.40
24.47
25.11
25.30
24.99
24.26
23.30
22.37
21.69
21.33
21.26
21.39
21.65
22.08
22.68
23.38
23.99
24.20
23.77
22.64
20.97
19.08
17.30
15.71
14.19
12.43
10.14
7.28
4.10
1.09
-1.26
-2.70
-3.38
-3.76
-4.42
-5.73
-7.80
-10.41
-13.27
-16.18
-19.18
-22.50
-26.39
-30.91
-35.78
-40.34
-43.78
-45.32
-44.52
-41.38
-36.38
-30.22
-23.60
-17.02
-10.77
-4.98
0.27
4.81
8.49
11.22
13.03
14.01
14.29
14.03
13.34
12.44
11.60
11.10
11.10
11.55
12.29
13.07
13.77
14.43
15.13
15.88
16.51
16.74
16.25
14.94
12.94
10.58
8.22
6.14
4.43
3.05
1.89
0.85
-0.18
-1.30
-2.65
-4.35
-6.42
-8.88
-11.68
-14.80
-18.28
-22.15
-26.42
-30.91
-35.28
-39.10
-42.00
-43.74
-44.28
-43.67
-41.96
-39.15
-35.25
-30.40
-24.90
-19.23
-13.80
-8.81
-4.14
0.50
5.38
10.39
15.06
18.70
20.73
21.00
19.84
17.92
15.99
14.62
14.09
14.42
15.48
17.03
18.74
20.16
20.82
20.31
18.47
15.43
11.66
7.77
4.34
1.77
0.13
-0.79
-1.36
-2.01
-3.07
-4.72
-6.97
-9.65
-12.51
-15.26
-17.66
-19.62
-21.25
-22.85
-24.83
-27.46
-30.71
-34.17
-37.07
-38.53
-37.81
-34.56
-28.98
-21.74
-13.82
-6.17
0.48
5.88
10.16
13.66
16.68
19.31
21.47
23.04
24.09
24.87
25.71
26.80
28.09
29.28
30.01
30.13
29.81
29.43
29.40
29.86
30.60
31.11
30.90
29.71
27.70
25.30
22.98
21.07
19.54
18.11
16.44
14.38
12.02
9.73
7.92
6.94
6.83
7.36
8.13
8.64
8.47
7.37
5.18
1.81
-2.70
-8.17
-14.07
-19.55
-23.53
-25.08
-23.81
-20.04
-14.77
-9.24
-4.48
-0.99
1.29
2.66
3.44
3.71
3.37
2.33
0.63
-1.52
-3.80
-5.93
-7.72
-9.05
-9.81
-9.86
-9.07
-7.40
-5.05
-2.45
-0.21
1.06
0.99
-0.50
-3.07
-6.20
-9.28
-11.84
-13.65
-14.67
-14.96
-14.63
-13.86
-12.88
-12.00
-11.60
-11.89
-12.89
-14.42
-16.25
-18.22
-20.37
-22.89
-25.96
-29.67
-33.92
-38.36
-42.56
-45.95
-48.05
-48.43
-46.95
-43.86
-39.80
-35.63
-32.16
-29.82
-28.50
-27.59
-26.31
-24.06
-20.71
-16.56
-12.19
-8.07
-4.48
-1.47
0.86
2.34
2.73
2.00
0.61
-0.62
-0.79
0.67
3.76
8.01
12.93
18.37
24.67
32.42
42.04
53.34
65.53
77.40
87.79
95.88
101.40
104.52
105.65
105.19
103.49
100.87
97.74
94.65
92.12
90.48
89.62
88.94
87.63
85.11
81.52
77.87
75.97
77.64
83.93
94.44
107.23
119.20
127.10
128.64
123.50
113.56
102.47
94.29
91.81
95.45
102.95
110.22
112.97
108.14
94.56
72.75
44.32
11.59
-22.15
-52.35
-73.48
-80.40
-70.63
-46.07
-13.17
19.05
42.08
50.81
44.67
26.80
1.94
-25.69
-53.37
-79.97
-105.04
-128.36
-149.89
-170.11
-190.53
-213.92
-244.14
-284.92
-337.95
-401.06
-467.37
-526.39
-567.07
-581.69
-568.64
-532.86
-483.38
-429.52
-377.50
-329.36
-284.04
-239.60
-194.99
-150.17
-105.26
-59.73
-12.74
35.46
82.16
122.10
149.44
160.51
156.21
142.25
127.20
119.21
123.17
139.78
166.13
197.46
228.76
255.82
275.54
285.88
286.16
277.07
260.39
238.05
211.19
179.23
140.17
91.79
33.57
-31.74
-97.93
-156.55
-199.52
-221.79
-222.98
-207.22
-181.12
-151.19
-121.71
-93.91
-66.69
-38.09
-6.70
27.41
62.58
96.21
125.62
148.84
164.99
174.24
177.39
175.14
167.94
156.29
141.27
124.87
109.65
97.82
90.26
86.08
83.19
79.46
73.86
66.92
60.18
55.27
52.97
52.76
53.25
52.82
50.43
45.94
40.07
33.95
28.73
25.08
23.12
22.41
22.01
20.76
17.58
11.89
3.89
-5.43
-14.54
-22.03
-27.06
-29.65
-30.43
-30.22
-29.51
-28.41
-26.80
-24.70
-22.54
-21.04
-21.01
-22.94
-26.90
-32.57
-39.39
-46.69
-53.64
-59.26
-62.51
-62.59
-59.20
-52.81
-44.45
-35.44
-26.88
-19.37
-12.96
-7.35
-2.22
2.60
7.08
11.14
14.76
18.10
21.39
24.85
28.51
32.18
35.47
37.91
39.10
38.85
37.22
34.54
31.25
27.81
24.58
21.74
19.25
16.96
14.76
12.57
10.45
8.42
6.49
4.48
2.24
-0.32
-3.02
-5.48
-7.29
-8.25
-8.54
-8.75
-9.61
-11.61
-14.80
-18.73
-22.74
-26.31
-29.25
-31.61
-33.50
-34.76
-34.85
-33.06
-28.94
-22.57
-14.79
-6.81
0.19
5.50
9.05
11.22
12.58
13.59
14.56
15.62
16.95
18.72
21.06
23.92
26.98
29.71
31.55
32.13
31.39
29.68
27.49
25.35
23.50
21.82
19.93
17.42
14.14
10.37
6.72
3.85
2.06
1.06
0.02
-2.04
-5.82
-11.34
-17.94
-24.51
-29.94
-33.51
-35.04
-34.85
-33.46
-31.39
-29.03
-26.75
-24.95
-24.16
-24.79
-26.92
-30.03
-33.09
-34.86
-34.36
-31.28
-26.03
-19.58
-12.95
-6.88
-1.62
2.93
6.99
10.69
13.94
16.54
18.37
19.53
20.31
21.02
21.89
22.89
23.82
24.46
24.71
24.66
24.48
24.34
24.23
23.99
23.44
22.54
21.38
20.18
19.15
18.38
17.86
17.50
17.23
16.96
16.58
15.97
15.01
13.60
11.77
9.60
7.22
4.76
2.25
-0.30
-2.84
-5.28
-7.52
-9.49
-11.20
-12.81
-14.67
-17.19
-20.79
-25.66
-31.70
-38.56
-45.81
-53.03
-59.73
-65.08
-67.85
-66.66
-60.61
-49.92
-36.15
-21.79
-9.36
-0.57
4.13
5.21
3.53
-0.12
-5.03
-10.29
-14.64
-16.72
-15.66
-11.62
-5.81
0.11
4.79
7.84
9.74
11.45
13.63
16.24
18.58
19.74
19.15
16.91
13.68
10.33
7.53
5.52
4.17
3.22
2.49
1.95
1.58
1.28
0.79
-0.18
-1.85
-4.25
-7.13
-10.09
-12.55
-13.93
-13.70
-11.62
-7.83
-2.90
2.29
6.88
10.32
12.56
13.93
14.91
15.88
16.90
17.75
18.13
17.88
17.05
15.91
14.82
14.01
13.56
13.32
13.12
12.79
12.31
11.75
11.21
10.68
10.08
9.21
7.93
6.21
4.16
2.01
-0.03
-1.77
-3.15
-4.21
-5.13
-6.05
-7.08
-8.19
-9.23
-10.03
-10.48
-10.57
-10.45
-10.32
-10.38
-10.77
-11.62
-13.10
-15.37
-18.50
-22.31
-26.28
-29.59
-31.34
-30.86
-27.99
-23.11
-17.00
-10.64
-4.87
-0.29
2.88
4.71
5.52
5.76
5.93
6.48
7.68
9.56
11.94
14.51
16.90
18.81
20.07
20.64
20.65
20.34
19.98
19.82
19.92
20.14
20.23
19.87
18.91
17.33
15.30
13.05
10.77
8.57
6.49
4.54
2.75
1.13
-0.28
-1.54
-2.67
-3.76
-4.84
-5.93
-7.08
-8.37
-9.98
-12.16
-15.16
-19.05
-23.57
-28.04
-31.49
-33.01
-31.98
-28.38
-22.64
-15.48
-7.63
0.32
7.91
14.69
20.11
23.58
24.68
23.42
20.37
16.57
13.26
11.44
11.65
13.69
16.84
20.06
22.41
23.30
22.61
20.62
17.80
14.65
11.61
9.07
7.30
6.46
6.45
6.91
7.29
7.00
5.72
3.48
0.70
-2.00
-4.06
-5.21
-5.47
-5.15
-4.69
-4.49
-4.79
-5.63
-6.88
-8.30
-9.69
-10.90
-11.97
-13.04
-14.31
-15.89
-17.73
-19.51
-20.75
-20.91
-19.62
-16.89
-13.11
-8.93
-5.01
-1.73
0.98
3.61
6.70
10.57
15.00
19.29
22.55
24.01
23.34
20.67
16.50
11.46
6.12
0.96
-3.63
-7.20
-9.26
-9.35
-7.24
-3.08
2.49
8.49
13.83
17.59
19.30
18.95
17.01
14.11
10.88
7.85
5.39
3.67
2.72
2.39
2.35
2.23
1.70
0.61
-1.00
-2.98
-5.10
-7.14
-8.93
-10.32
-11.22
-11.65
-11.79
-11.98
-12.65
-14.22
-16.88
-20.58
-24.97
-29.42
-33.15
-35.37
-35.45
-33.14
-28.60
-22.36
-15.21
-7.96
-1.27
4.35
8.57
11.22
12.30
12.06
11.04
9.94
9.36
9.55
10.37
11.41
12.27
12.82
13.24
13.81
14.67
15.68
16.46
16.62
15.98
14.68
13.04
11.42
10.00
8.82
7.86
7.12
6.63
6.42
6.36
6.19
5.60
4.38
2.51
0.23
-2.11
-4.16
-5.71
-6.70
-7.22
-7.45
-7.57
-7.75
-8.17
-8.95
-10.16
-11.82
-13.82
-16.06
-18.40
-20.76
-23.05
-25.22
-27.27
-29.24
-31.15
-32.91
-34.20
-34.56
-33.49
-30.66
-26.15
-20.45
-14.32
-8.54
-3.63
0.22
3.14
5.33
7.01
8.28
9.25
9.96
10.46
10.77
10.90
10.84
10.61
10.31
10.10
10.13
10.54
11.33
12.38
13.49
14.38
14.83
14.73
14.12
13.18
12.10
11.06
10.14
9.31
8.51
7.65
6.68
5.55
4.29
2.98
1.81
1.00
0.70
0.86
1.17
1.17
0.47
-1.03
-3.11
-5.35
-7.30
-8.78
-9.85
-10.73
-11.71
-12.93
-14.45
-16.28
-18.41
-20.85
-23.47
-25.97
-27.80
-28.32
-27.04
-23.82
-19.00
-13.32
-7.68
-2.81
0.94
3.59
5.44
6.81
7.91
8.78
9.40
9.79
10.06
10.36
10.83
11.47
12.17
12.79
13.28
13.68
14.09
14.57
15.11
15.58
15.84
15.77
15.36
14.67
13.83
12.97
12.20
11.59
11.14
10.75
10.29
9.66
8.80
7.71
6.45
5.01
3.38
1.56
-0.42
-2.40
-4.18
-5.56
-6.43
-6.79
-6.80
-6.68
-6.70
-7.03
-7.74
-8.75
-9.99
-11.42
-13.15
-15.33
-18.04
-21.17
-24.43
-27.36
-29.57
-30.75
-30.69
-29.20
-26.18
-21.63
-15.84
-9.48
-3.45
1.39
4.48
5.84
5.92
5.50
5.31
5.86
7.30
9.51
12.16
14.90
17.40
19.41
20.71
21.14
20.63
19.30
17.41
15.38
13.61
12.34
11.58
11.19
10.97
10.86
10.85
11.05
11.42
11.79
11.84
11.30
10.12
8.50
6.80
5.37
4.32
3.52
2.66
1.50
0.00
-1.65
-3.20
-4.46
-5.47
-6.43
-7.47
-8.53
-9.31
-9.37
-8.46
-6.67
-4.46
-2.51
-1.45
-1.69
-3.28
-6.07
-9.82
-14.32
-19.34
-24.53
-29.38
-33.13
-34.98
-34.29
-30.79
-24.77
-17.08
-8.89
-1.47
4.23
7.76
9.29
9.43
8.97
8.52
8.39
8.55
8.85
9.17
9.53
10.04
10.74
11.52
12.17
12.50
12.45
12.15
11.76
11.43
11.14
10.77
10.16
9.27
8.14
6.88
5.55
4.17
2.75
1.36
0.12
-0.83
-1.41
-1.70
-1.88
-2.11
-2.48
-3.03
-3.71
-4.52
-5.46
-6.52
-7.62
-8.68
-9.62
-10.45
-11.28
-12.31
-13.66
-15.30
-16.98
-18.39
-19.29
-19.75
-20.14
-20.98
-22.66
-25.19
-28.13
-30.72
-32.18
-31.94
-29.78
-25.77
-20.14
-13.29
-5.72
1.89
8.78
14.24
17.79
19.36
19.20
17.77
15.57
13.04
10.59
8.64
7.64
7.91
9.55
12.27
15.46
18.34
20.24
20.85
20.25
18.85
17.11
15.39
13.86
12.54
11.45
10.65
10.26
10.34
10.79
11.33
11.54
11.08
9.77
7.64
4.95
2.08
-0.59
-2.78
-4.36
-5.41
-6.16
-6.88
-7.80
-9.03
-10.56
-12.31
-14.19
-16.17
-18.23
-20.42
-22.84
-25.53
-28.48
-31.51
-34.25
-36.16
-36.67
-35.36
-32.09
-27.08
-20.85
-14.12
-7.63
-2.10
1.97
4.42
5.42
5.58
5.59
6.13
7.55
9.86
12.84
16.16
19.52
22.66
25.32
27.23
28.21
28.28
27.80
27.29
27.21
27.78
28.78
29.78
30.25
29.88
28.54
26.28
23.25
19.66
15.83
12.20
9.19
7.11
5.96
5.46
5.20
4.79
4.03
2.89
1.43
-0.38
-2.61
-5.35
-8.58
-12.14
-15.71
-18.94
-21.50
-23.24
-24.20
-24.60
-24.79
-25.07
-25.74
-26.98
-28.87
-31.37
-34.22
-36.92
-38.71
-38.79
-36.56
-31.91
-25.27
-17.56
-9.86
-3.11
2.14
5.76
7.95
9.11
9.73
10.28
11.14
12.54
14.45
16.63
18.65
20.09
20.68
20.39
19.41
18.09
16.80
15.83
15.32
15.27
15.54
15.90
16.09
15.92
15.28
14.25
13.04
11.91
11.07
10.58
10.33
10.14
9.85
9.37
8.67
7.74
6.55
4.99
2.98
0.62
-1.83
-3.99
-5.54
-6.42
-6.91
-7.50
-8.58
-10.20
-12.02
-13.46
-14.10
-13.99
-13.76
-14.40
-16.82
-21.50
-28.19
-36.00
-43.62
-49.69
-53.10
-53.15
-49.66
-43.01
-34.05
-23.98
-14.18
-5.83
0.31
4.05
5.82
6.36
6.53
6.98
8.08
9.86
12.24
14.99
17.85
20.54
22.74
24.24
24.96
25.10
24.99
25.01
25.36
25.95
26.46
26.50
25.82
24.45
22.70
21.00
19.73
19.04
18.80
18.73
18.54
18.01
17.11
15.90
14.46
12.83
11.03
9.09
7.12
5.26
3.58
2.05
0.56
-1.06
-2.84
-4.72
-6.55
-8.21
-9.71
-11.18
-12.77
-14.60
-16.64
-18.79
-20.96
-23.16
-25.55
-28.34
-31.62
-35.20
-38.49
-40.61
-40.64
-37.92
-32.35
-24.47
-15.37
-6.36
1.43
7.28
11.07
13.19
14.37
15.38
16.87
19.09
21.95
25.01
27.60
29.03
28.75
26.55
22.77
18.34
14.66
13.15
14.73
19.31
25.77
32.21
36.70
37.93
35.65
30.63
24.18
17.61
11.78
7.07
3.52
1.12
-0.10
-0.13
0.93
2.67
4.45
5.60
5.59
4.31
2.05
-0.67
-3.32
-5.54
-7.23
-8.48
-9.47
-10.43
-11.52
-12.82
-14.35
-16.04
-17.78
-19.50
-21.17
-22.79
-24.44
-26.19
-28.11
-30.30
-32.88
-35.96
-39.47
-43.05
-45.95
-47.25
-46.08
-42.06
-35.46
-27.13
-18.20
-9.72
-2.34
3.68
8.39
12.02
14.85
17.17
19.32
21.58
24.09
26.79
29.37
31.42
32.63
32.84
32.11
30.67
28.83
26.84
24.97
23.47
22.56
22.45
23.17
24.61
26.44
28.19
29.31
29.36
28.11
25.59
22.11
18.09
13.94
10.01
6.60
4.00
2.52
2.45
3.76
6.07
8.56
10.23
10.32
8.59
5.46
1.77
-1.70
-4.62
-7.21
-10.04
-13.57
-17.80
-22.24
-26.12
-28.77
-30.06
-30.43
-30.69
-31.67
-33.84
-37.10
-40.85
-44.21
-46.30
-46.48
-44.48
-40.40
-34.63
-27.70
-20.20
-12.66
-5.57
0.62
5.60
9.18
11.40
12.53
12.98
13.19
13.47
13.92
14.53
15.29
16.23
17.38
18.70
20.01
21.00
21.41
21.17
20.40
19.35
18.26
17.25
16.37
15.70
15.39
15.59
16.31
17.31
18.13
18.31
17.65
16.27
14.55
12.84
11.26
9.62
7.62
5.17
2.47
0.05
-1.53
-2.02
-1.63
-0.98
-0.86
-1.88
-4.24
-7.69
-11.68
-15.58
-18.93
-21.48
-23.32
-24.73
-26.09
-27.78
-30.01
-32.72
-35.53
-37.79
-38.71
-37.58
-34.02
-28.08
-20.34
-11.81
-3.61
3.21
8.09
11.05
12.59
13.48
14.42
15.76
17.49
19.31
20.84
21.81
22.14
21.88
21.18
20.23
19.22
18.44
18.08
18.29
19.00
19.96
20.83
21.25
21.02
20.06
18.48
16.47
14.32
12.34
10.84
9.99
9.82
10.10
10.43
10.33
9.45
7.67
5.13
2.18
-0.72
-3.23
-5.13
-6.37
-7.11
-7.59
-8.12
-8.97
-10.32
-12.17
-14.37
-16.69
-18.88
-20.82
-22.58
-24.39
-26.61
-29.47
-32.97
-36.71
-39.93
-41.72
-41.29
-38.30
-32.98
-26.05
-18.55
-11.40
-5.23
-0.28
3.49
6.27
8.24
9.62
10.61
11.45
12.31
13.29
14.37
15.45
16.41
17.15
17.58
17.67
17.45
17.06
16.71
16.59
16.84
17.39
18.05
18.57
18.75
18.53
17.99
17.20
16.25
15.22
14.22
13.32
12.64
12.17
11.83
11.47
10.91
10.04
8.78
7.11
5.11
2.92
0.78
-1.08
-2.55
-3.69
-4.73
-5.95
-7.46
-9.15
-10.66
-11.61
-11.89
-11.73
-11.68
-12.42
-14.46
-17.97
-22.70
-28.00
-33.04
-36.90
-38.82
-38.28
-35.14
-29.71
-22.69
-15.08
-7.93
-2.11
1.86
3.97
4.62
4.44
4.12
4.20
5.02
6.64
8.95
11.66
14.43
16.83
18.42
18.88
18.08
16.21
13.70
11.19
9.31
8.48
8.73
9.74
10.89
11.49
11.10
9.66
7.54
5.36
3.70
2.92
3.00
3.64
4.47
5.19
5.58
5.52
4.91
3.69
1.94
-0.06
-1.83
-2.85
-2.88
-2.05
-0.94
-0.33
-0.90
-2.95
-6.29
-10.34
-14.32
-17.49
-19.45
-20.13
-19.86
-19.23
-18.88
-19.37
-20.98
-23.57
-26.66
-29.44
-31.00
-30.61
-27.91
-23.03
-16.61
-9.56
-2.82
2.85
7.06
9.77
11.17
11.59
11.38
10.92
10.53
10.52
11.05
12.11
13.52
14.92
16.00
16.57
16.70
16.64
16.67
16.97
17.49
18.01
18.21
17.87
16.92
15.51
13.94
12.54
11.54
11.02
10.81
10.67
10.31
9.61
8.58
7.34
6.05
4.77
3.45
2.06
0.58
-0.91
-2.30
-3.49
-4.55
-5.67
-7.08
-8.96
-11.28
-13.82
-16.23
-18.19
-19.55
-20.39
-21.01
-21.78
-23.02
-24.89
-27.31
-30.03
-32.62
-34.52
-35.20
-34.18
-31.17
-26.23
-19.77
-12.57
-5.53
0.52
5.02
7.87
9.38
10.13
10.77
11.77
13.25
15.04
16.79
18.19
19.07
19.48
19.54
19.40
19.16
18.89
18.67
18.59
18.72
19.06
19.50
19.83
19.85
19.42
18.58
17.46
16.28
15.19
14.26
13.42
12.57
11.65
10.67
9.74
8.96
8.38
7.94
7.45
6.76
5.74
4.41
2.88
1.30
-0.23
-1.71
-3.24
-4.97
-6.94
-9.11
-11.26
-13.12
-14.49
-15.32
-15.81
-16.31
-17.22
-18.82
-21.21
-24.33
-27.97
-31.81
-35.36
-38.01
-39.05
-37.97
-34.58
-29.19
-22.58
-15.72
-9.51
-4.54
-0.95
1.44
3.02
4.23
5.43
6.93
8.86
11.23
13.82
16.25
18.12
19.08
19.02
18.08
16.69
15.30
14.26
13.71
13.51
13.41
13.13
12.51
11.55
10.36
9.11
7.91
6.79
5.79
4.90
4.21
3.78
3.61
3.63
3.68
3.59
3.25
2.60
1.70
0.63
-0.55
-1.82
-3.21
-4.73
-6.38
-8.08
-9.78
-11.46
-13.13
-14.80
-16.45
-18.02
-19.44
-20.72
-21.93
-23.28
-24.99
-27.28
-30.26
-33.80
-37.46
-40.56
-42.22
-41.66
-38.45
-32.76
-25.31
-17.13
-9.26
-2.42
3.12
7.39
10.58
12.88
14.50
15.67
16.66
17.74
19.06
20.56
21.98
23.03
23.49
23.34
22.76
22.13
21.81
22.08
22.96
24.20
25.32
25.79
25.28
23.82
21.75
19.62
17.84
16.52
15.51
14.56
13.48
12.26
10.97
9.62
8.14
6.41
4.45
2.41
0.57
-0.82
-1.70
-2.24
-2.74
-3.50
-4.70
-6.40
-8.52
-10.89
-13.31
-15.58
-17.55
-19.28
-21.01
-23.13
-25.94
-29.54
-33.58
-37.36
-40.02
-40.77
-39.18
-35.24
-29.38
-22.32
-14.91
-7.93
-2.03
2.37
5.15
6.50
6.93
7.11
7.67
9.01
11.11
13.62
15.97
17.69
18.59
18.84
18.83
18.95
19.44
20.27
21.16
21.80
21.97
21.63
20.90
20.02
19.20
18.55
18.11
17.77
17.43
16.97
16.27
15.28
13.98
12.43
10.74
9.09
7.62
6.37
5.29
4.21
3.00
1.62
0.09
-1.47
-3.04
-4.68
-6.49
-8.56
-10.83
-13.12
-15.20
-16.89
-18.21
-19.39
-20.81
-22.84
-25.68
-29.20
-32.88
-35.91
-37.35
-36.51
-33.18
-27.78
-21.20
-14.45
-8.42
-3.54
0.20
3.12
5.62
8.03
10.53
13.03
15.28
16.96
17.74
17.46
16.20
14.23
11.97
9.85
8.20
7.27
7.20
8.06
9.78
12.07
14.48
16.47
17.66
17.94
17.52
16.78
16.04
15.32
14.45
13.21
11.56
9.76
8.28
7.55
7.67
8.34
8.92
8.77
7.49
5.14
2.14
-0.97
-3.78
-6.14
-8.20
-10.22
-12.38
-14.66
-16.87
-18.77
-20.26
-21.46
-22.66
-24.18
-26.17
-28.60
-31.29
-33.97
-36.42
-38.43
-39.70
-39.90
-38.65
-35.76
-31.31
-25.70
-19.59
-13.68
-8.54
-4.45
-1.46
0.60
2.07
3.31
4.71
6.48
8.66
11.04
13.25
14.98
16.11
16.75
17.23
17.87
18.87
20.25
21.81
23.29
24.38
24.87
24.64
23.73
22.39
20.91
19.61
18.65
18.02
17.56
17.02
16.22
15.13
13.84
12.52
11.29
10.17
9.06
7.82
6.30
4.42
2.15
-0.43
-3.14
-5.75
-8.05
-9.88
-11.30
-12.47
-13.71
-15.39
-17.83
-21.28
-25.74
-30.92
-36.19
-40.60
-43.05
-42.68
-39.11
-32.65
-24.28
-15.29
-7.05
-0.57
3.62
5.54
5.66
4.84
4.01
4.03
5.41
8.22
12.08
16.27
20.00
22.65
23.89
23.87
22.99
21.85
21.00
20.75
21.12
21.90
22.79
23.60
24.28
24.88
25.42
25.72
25.42
24.09
21.53
17.86
13.66
9.77
6.99
5.75
5.96
7.08
8.28
8.85
8.34
6.65
3.93
0.46
-3.28
-6.59
-8.58
-8.47
-5.94
-1.51
3.51
7.44
8.95
7.57
3.84
-1.09
-6.03
-10.28
-13.78
-16.89
-20.02
-23.27
-26.41
-28.95
-30.39
-30.35
-28.72
-25.68
-21.64
-17.07
-12.41
-7.98
-3.97
-0.52
2.19
3.98
4.74
4.60
4.00
3.56
3.85
5.10
7.06
9.13
10.69
11.43
11.46
11.23
11.19
11.50
11.97
12.22
11.93
11.07
9.86
8.57
7.39
6.32
5.33
4.47
3.91
3.89
4.45
5.43
6.46
7.15
7.27
6.75
5.72
4.28
2.49
0.38
-2.02
-4.57
-7.02
-9.11
-10.63
-11.56
-12.08
-12.48
-13.02
-13.81
-14.81
-15.87
-16.88
-17.89
-19.11
-20.86
-23.43
-26.88
-31.04
-35.37
-39.13
-41.43
-41.53
-38.97
-33.83
-26.72
-18.67
-10.86
-4.25
0.71
4.05
6.23
7.84
9.36
11.02
12.80
14.55
16.17
17.57
18.75
19.69
20.33
20.58
20.48
20.19
20.02
20.23
20.94
22.00
23.06
23.73
23.75
23.06
21.80
20.15
18.29
16.26
14.09
11.79
9.45
7.19
5.18
3.52
2.27
1.37
0.74
0.30
-0.01
-0.25
-0.44
-0.66
-1.09
-1.91
-3.31
-5.40
-8.17
-11.50
-15.15
-18.86
-22.36
-25.48
-28.15
-30.47
-32.62
-34.64
-36.37
-37.37
-37.06
-35.05
-31.28
-26.10
-20.14
-14.09
-8.41
-3.35
1.09
4.91
8.13
10.70
12.62
13.93
14.76
15.27
15.63
15.94
16.33
16.90
17.76
19.00
20.67
22.74
25.04
27.28
29.06
30.08
30.14
29.22
27.44
25.04
22.19
19.12
16.10
13.49
11.72
11.07
11.57
12.85
14.25
15.04
14.73
13.18
10.61
7.43
4.03
0.64
-2.62
-5.65
-8.27
-10.24
-11.33
-11.56
-11.22
-10.88
-11.15
-12.47
-14.91
-18.09
-21.40
-24.22
-26.19
-27.36
-28.07
-28.84
-30.01
-31.61
-33.31
-34.51
-34.59
-33.10
-29.94
-25.36
-19.86
-14.09
-8.60
-3.81
0.10
3.15
5.54
7.59
9.66
12.03
14.74
17.60
20.20
22.05
22.78
22.31
20.86
18.92
17.05
15.72
15.17
15.36
16.05
16.86
17.50
17.75
17.55
16.88
15.75
14.15
12.09
9.71
7.22
4.91
2.99
1.55
0.54
-0.15
-0.55
-0.71
-0.68
-0.65
-0.96
-1.98
-3.89
-6.51
-9.34
-11.76
-13.28
-13.75
-13.38
-12.65
-12.03
-11.91
-12.50
-13.88
-15.97
-18.59
-21.45
-24.20
-26.53
-28.29
-29.47
-30.21
-30.64
-30.73
-30.23
-28.80
-26.12
-22.15
-17.18
-11.82
-6.78
-2.60
0.53
2.84
4.85
7.05
9.72
12.70
15.61
17.98
19.54
20.32
20.60
20.74
20.97
21.33
21.75
22.13
22.47
22.87
23.40
24.02
24.51
24.50
23.68
21.88
19.22
16.04
12.87
10.18
8.29
7.26
6.95
7.09
7.48
7.95
8.41
8.68
8.45
7.36
5.12
1.79
-2.26
-6.39
-9.97
-12.56
-14.11
-14.89
-15.26
-15.60
-16.13
-16.98
-18.19
-19.90
-22.28
-25.56
-29.79
-34.72
-39.63
-43.49
-45.22
-44.06
-39.92
-33.39
-25.53
-17.49
-10.15
-4.02
0.76
4.23
6.57
8.08
9.21
10.46
12.23
14.67
17.58
20.53
23.02
24.71
25.52
25.60
25.26
24.88
24.69
24.78
25.04
25.21
24.95
24.10
22.71
21.05
19.55
18.57
18.26
18.49
18.98
19.34
19.28
18.60
17.24
15.25
12.79
10.11
7.49
5.24
3.58
2.59
2.24
2.31
2.47
2.37
1.66
0.18
-2.02
-4.71
-7.51
-10.12
-12.36
-14.29
-16.10
-17.98
-20.05
-22.35
-24.88
-27.72
-30.96
-34.60
-38.42
-41.82
-43.99
-44.12
-41.77
-37.10
-30.89
-24.26
-18.28
-13.59
-10.24
-7.79
-5.65
-3.37
-0.84
1.77
4.26
6.50
8.62
10.76
12.94
14.96
16.46
17.15
17.03
16.45
15.89
15.66
15.77
15.89
15.64
14.84
13.63
12.34
11.31
10.63
10.17
9.74
9.20
8.55
7.87
7.18
6.35
5.21
3.61
1.63
-0.47
-2.26
-3.36
-3.63
-3.21
-2.51
-2.12
-2.56
-4.09
-6.57
-9.52
-12.28
-14.38
-15.70
-16.62
-17.76
-19.70
-22.62
-26.17
-29.58
-31.91
-32.37
-30.59
-26.61
-20.85
-13.96
-6.70
0.17
5.99
10.33
13.07
14.46
15.01
15.29
15.76
16.59
17.64
18.65
19.33
19.60
19.53
19.32
19.21
19.30
19.61
20.05
20.49
20.83
20.92
20.60
19.73
18.24
16.19
13.83
11.50
9.52
8.07
7.13
6.53
5.96
5.20
4.12
2.79
1.39
0.10
-0.96
-1.79
-2.46
-3.10
-3.87
-4.92
-6.41
-8.42
-10.94
-13.76
-16.55
-18.93
-20.71
-22.01
-23.27
-25.08
-27.94
-31.92
-36.60
-41.11
-44.44
-45.67
-44.33
-40.49
-34.70
-27.86
-20.97
-14.88
-10.07
-6.42
-3.29
0.32
5.30
12.03
20.06
28.26
35.21
39.82
41.71
41.24
39.24
36.55
33.70
30.94
28.40
26.27
24.87
24.43
24.85
25.66
26.15
25.71
24.11
21.69
19.07
16.91
15.55
14.96
14.77
14.58
14.08
13.23
12.10
10.82
9.43
7.93
6.26
4.39
2.38
0.30
-1.72
-3.55
-5.10
-6.34
-7.43
-8.63
-10.23
-12.44
-15.21
-18.23
-21.04
-23.29
-24.94
-26.28
-27.85
-30.20
-33.57
-37.81
-42.36
-46.41
-49.09
-49.65
-47.68
-43.11
-36.35
-28.18
-19.68
-11.97
-5.97
-2.12
-0.29
0.17
0.18
0.62
2.03
4.50
7.72
11.19
14.42
17.08
19.00
20.18
20.67
20.61
20.17
19.57
18.94
18.30
17.61
16.85
16.10
15.57
15.45
15.81
16.44
17.02
17.20
16.87
16.08
15.04
13.85
12.48
10.79
8.71
6.30
3.80
1.48
-0.54
-2.28
-3.86
-5.34
-6.61
-7.47
-7.74
-7.41
-6.77
-6.30
-6.60
-8.15
-11.24
-15.88
-21.76
-28.28
-34.53
-39.38
-41.65
-40.47
-35.52
-27.28
-17.01
-6.44
2.72
9.16
12.39
12.76
11.23
9.00
7.12
6.21
6.50
7.95
10.42
13.72
17.56
21.41
24.53
26.19
25.99
24.10
21.26
18.47
16.54
15.83
16.19
17.14
18.17
18.97
19.40
19.46
19.14
18.40
17.26
15.75
14.07
12.47
11.19
10.40
10.10
10.07
9.98
9.41
8.02
5.69
2.52
-1.15
-4.90
-8.33
-11.16
-13.25
-14.58
-15.19
-15.15
-14.65
-14.01
-13.65
-14.06
-15.61
-18.40
-22.25
-26.71
-31.16
-34.94
-37.44
-38.14
-36.75
-33.21
-27.79
-21.07
-13.84
-6.87
-0.83
3.90
7.23
9.26
10.29
10.77
11.22
12.19
14.02
16.73
19.94
22.96
25.08
25.81
25.13
23.43
21.35
19.54
18.38
17.96
18.03
18.22
18.18
17.70
16.71
15.23
13.33
11.02
8.34
5.34
2.22
-0.76
-3.27
-5.12
-6.25
-6.84
-7.18
-7.55
-8.09
-8.70
-9.11
-9.06
-8.42
-7.39
-6.38
-5.91
-6.39
-7.93
-10.35
-13.23
-16.08
-18.52
-20.32
-21.46
-22.05
-22.24
-22.17
-22.00
-21.95
-22.29
-23.33
-25.20
-27.71
-30.27
-31.97
-31.88
-29.47
-24.78
-18.43
-11.38
-4.57
1.28
5.79
8.85
10.59
11.30
11.42
11.41
11.61
12.21
13.10
14.05
14.80
15.21
15.29
15.23
15.23
15.48
16.13
17.18
18.48
19.70
20.39
20.14
18.74
16.30
13.23
10.16
7.69
6.23
5.94
6.73
8.36
10.49
12.77
14.82
16.22
16.47
15.16
12.04
7.25
1.34
-4.79
-10.16
-13.99
-15.93
-16.14
-15.08
-13.35
-11.46
-9.85
-8.89
-9.06
-10.89
-14.75
-20.52
-27.43
-34.07
-38.73
-39.96
-37.03
-30.22
-20.65
-10.01
-0.03
7.91
13.02
15.21
14.97
13.17
10.80
8.71
7.44
7.20
7.95
9.52
11.67
14.18
16.75
18.99
20.53
21.10
20.69
19.51
17.96
16.41
15.08
14.05
13.27
12.70
12.37
12.36
12.62
12.94
12.95
12.32
10.90
8.82
6.49
4.38
2.84
2.00
1.76
1.90
2.14
2.21
1.83
0.77
-1.06
-3.57
-6.46
-9.29
-11.62
-13.22
-14.04
-14.28
-14.27
-14.29
-14.54
-15.16
-16.25
-17.94
-20.39
-23.66
-27.55
-31.56
-34.82
-36.39
-35.48
-31.83
-25.79
-18.33
-10.66
-3.89
1.26
4.62
6.47
7.30
7.60
7.75
7.99
8.44
9.20
10.27
11.59
12.92
13.97
14.47
14.31
13.64
12.82
12.29
12.38
13.14
14.35
15.57
16.35
16.40
15.62
14.13
12.11
9.78
7.34
4.99
3.01
1.64
1.04
1.15
1.67
2.14
2.05
1.10
-0.71
-3.05
-5.41
-7.24
-8.20
-8.28
-7.80
-7.25
-7.08
-7.52
-8.56
-10.04
-11.86
-14.04
-16.72
-19.96
-23.63
-27.39
-30.85
-33.69
-35.76
-36.99
-37.25
-36.27
-33.75
-29.56
-23.95
-17.59
-11.41
-6.22
-2.57
-0.51
0.34
0.66
1.21
2.65
5.30
9.00
13.13
16.78
19.16
19.90
19.21
17.69
16.09
14.97
14.58
14.97
16.08
17.77
19.86
21.98
23.56
24.05
23.10
20.77
17.53
14.12
11.22
9.27
8.36
8.27
8.68
9.21
9.58
9.64
9.35
8.70
7.73
6.45
4.90
3.09
1.01
-1.39
-4.19
-7.45
-11.16
-15.11
-18.95
-22.27
-24.78
-26.46
-27.59
-28.68
-30.23
-32.49
-35.33
-38.30
-40.67
-41.66
-40.60
-37.05
-30.95
-22.63
-12.90
-2.86
6.23
13.32
17.85
19.81
19.78
18.63
17.18
16.01
15.36
15.20
15.46
16.12
17.22
18.79
20.75
22.80
24.53
25.59
25.75
25.10
23.89
22.47
21.17
20.16
19.50
19.08
18.75
18.26
17.27
15.51
12.84
9.42
5.74
2.52
0.46
-0.03
1.00
3.07
5.46
7.41
8.42
8.22
6.71
4.00
0.28
-4.04
-8.35
-11.93
-14.19
-14.90
-14.43
-13.60
-13.45
-14.81
-17.97
-22.54
-27.72
-32.55
-36.28
-38.53
-39.20
-38.33
-35.99
-32.28
-27.41
-21.80
-16.04
-10.76
-6.38
-3.05
-0.59
1.34
3.09
4.86
6.70
8.53
10.20
11.54
12.40
12.66
12.26
11.26
9.90
8.57
7.70
7.67
8.58
10.25
12.26
14.19
15.70
16.62
16.83
16.21
14.62
12.01
8.61
5.05
2.20
0.94
1.76
4.56
8.64
12.95
16.40
18.08
17.50
14.54
9.51
3.04
-4.01
-10.62
-15.83
-18.93
-19.70
-18.51
-16.25
-14.09
-13.03
-13.61
-15.74
-18.86
-22.27
-25.49
-28.40
-31.10
-33.60
-35.55
-36.26
-35.00
-31.39
-25.66
-18.62
-11.38
-4.86
0.44
4.52
7.70
10.32
12.56
14.38
15.67
16.35
16.50
16.32
16.07
15.88
15.81
15.80
15.78
15.78
15.92
16.34
17.16
18.28
19.42
20.09
19.86
18.55
16.31
13.61
11.04
9.02
7.71
7.04
6.86
7.13
7.86
9.03
10.41
11.51
11.87
11.23
9.73
7.76
5.76
3.84
1.74
-1.00
-4.66
-9.13
-13.91
-18.31
-21.91
-24.68
-26.99
-29.35
-32.09
-35.18
-38.12
-40.19
-40.64
-38.98
-35.13
-29.45
-22.67
-15.67
-9.22
-3.74
0.69
4.36
7.68
10.98
14.40
17.84
21.06
23.81
25.90
27.28
27.96
27.96
27.36
26.19
24.49
22.35
19.98
17.68
15.77
14.49
13.94
13.99
14.43
15.07
15.80
16.63
17.60
18.69
19.75
20.52
20.70
20.04
18.38
15.70
12.15
8.09
4.08
0.74
-1.44
-2.37
-2.37
-2.13
-2.39
-3.59
-5.77
-8.51
-11.15
-13.15
-14.24
-14.59
-14.65
-14.93
-15.77
-17.26
-19.31
-21.76
-24.54
-27.60
-30.69
-33.26
-34.40
-33.17
-29.08
-22.41
-14.25
-6.09
0.80
5.81
9.14
11.43
13.32
15.13
16.84
18.29
19.41
20.36
21.34
22.43
23.45
24.06
23.96
23.11
21.71
20.09
18.58
17.34
16.49
16.10
16.28
16.99
18.03
18.98
19.31
18.57
16.60
13.59
9.98
6.32
3.05
0.29
-2.09
-4.41
-7.02
-10.02
-13.22
-16.20
-18.55
-20.07
-20.90
-21.46
-22.23
-23.57
-25.64
-28.41
-31.81
-35.70
-39.80
-43.57
-46.27
-47.07
-45.37
-41.17
-35.06
-28.08
-21.25
-15.21
-10.09
-5.57
-1.25
3.16
7.62
11.94
15.92
19.50
22.77
25.89
28.98
32.07
35.11
37.89
40.07
41.15
40.58
37.94
33.14
26.55
18.86
10.91
3.42
-3.18
-8.77
-13.29
-16.63
-18.38
-18.07
-15.44
-10.88
-5.58
-1.32
0.11
-2.28
-8.16
-15.93
-23.30
-28.23
-29.81
-28.66
-26.81
-27.10
-32.14
-43.15
-59.04
-76.26
-89.58
-93.74
-85.40
-64.47
-34.32
-0.83
29.38
50.70
59.82
56.33
42.59
23.10
3.43
-11.12
-16.96
-13.14
-1.48
14.36
30.25
43.04
51.40
55.87
58.10
59.94
62.63
66.34
70.36
73.45
74.44
72.65
68.09
61.22
52.70
43.07
32.70
21.78
10.44
-1.13
-12.73
-24.13
-35.09
-45.26
-54.09
-60.88
-64.83
-65.42
-62.54
-56.87
-49.81
-43.14
-38.40
-36.34
-36.58
-37.62
-37.38
-34.02
-26.71
-16.06
-3.95
7.08
14.72
17.84
16.85
13.49
10.10
8.60
9.91
13.77
19.15
24.87
30.11
34.56
38.20
40.97
42.63
42.86
41.52
38.78
35.21
31.46
28.06
25.18
22.64
20.15
17.49
14.78
12.48
11.26
11.76
14.29
18.74
24.57
30.95
36.98
41.90
45.30
47.20
47.93
47.97
47.73
47.50
47.52
48.10
49.48
51.39
52.59
50.70
42.92
27.20
3.61
-25.21
-54.82
-80.60
-99.48
-110.79
-115.92
-117.13
-116.38
-114.70
-112.38
-109.49
-106.15
-102.47
-98.16
-92.36
-83.84
-71.58
-55.38
-36.21
-16.00
2.85
18.26
29.02
34.99
36.96
36.27
34.31
32.20
30.76
30.52
31.91
35.27
40.73
47.95
55.93
62.96
67.01
66.34
60.09
48.74
33.99
18.19
3.60
-8.23
-16.61
-21.49
-23.05
-21.50
-17.16
-10.65
-3.09
4.05
9.33
11.82
11.32
8.36
3.85
-1.25
-6.27
-10.88
-15.10
-19.13
-23.19
-27.36
-31.56
-35.59
-39.23
-42.37
-45.03
-47.36
-49.52
-51.58
-53.48
-54.96
-55.62
-55.01
-52.72
-48.56
-42.59
-35.15
-26.71
-17.76
-8.78
-0.16
7.69
14.39
19.67
23.55
26.36
28.66
30.97
33.48
35.98
37.96
38.95
38.75
37.52
35.70
33.67
31.68
29.72
27.75
25.80
24.01
22.57
21.49
20.65
19.79
18.65
17.18
15.48
13.73
12.03
10.37
8.66
6.86
5.09
3.56
2.44
1.74
1.27
0.71
-0.20
-1.54
-3.14
-4.75
-6.10
-7.14
-7.96
-8.85
-10.08
-11.82
-14.10
-16.83
-19.81
-22.81
-25.49
-27.46
-28.26
-27.46
-24.87
-20.63
-15.23
-9.34
-3.64
1.42
5.64
9.03
11.70
13.70
15.00
15.57
15.41
14.63
13.48
12.22
11.09
10.24
9.68
9.31
8.89
8.09
6.56
4.06
0.57
-3.62
-8.02
-12.05
-15.23
-17.27
-18.04
-17.53
-15.75
-12.87
-9.26
-5.51
-2.28
-0.03
1.12
1.49
1.56
1.73
2.08
2.36
2.18
1.27
-0.47
-2.88
-5.77
-8.98
-12.41
-16.04
-19.83
-23.71
-27.64
-31.54
-35.25
-38.43
-40.49
-40.76
-38.57
-33.55
-25.80
-15.84
-4.57
7.01
17.93
27.42
34.97
40.33
43.47
44.65
44.30
43.06
41.60
40.52
40.21
40.77
42.03
43.57
44.91
45.60
45.37
44.14
42.01
39.25
36.23
33.34
30.81
28.66
26.57
24.05
20.66
16.27
11.21
6.14
1.81
-1.33
-3.25
-4.27
-4.86
-5.40
-6.03
-6.77
-7.64
-8.70
-10.02
-11.52
-12.98
-14.05
-14.52
-14.38
-13.95
-13.68
-13.98
-15.03
-16.74
-18.79
-20.70
-21.97
-22.10
-20.81
-18.13
-14.45
-10.45
-6.86
-4.15
-2.48
-1.71
-1.60
-1.97
-2.65
-3.43
-3.96
-3.89
-3.09
-1.82
-0.76
-0.69
-2.03
-4.58
-7.49
-9.67
-10.27
-9.04
-6.37
-3.03
0.16
2.58
3.97
4.30
3.67
2.28
0.36
-1.81
-3.86
-5.38
-6.05
-5.82
-4.93
-3.90
-3.27
-3.41
-4.29
-5.62
-7.00
-8.21
-9.29
-10.41
-11.69
-13.04
-14.11
-14.58
-14.33
-13.58
-12.80
-12.47
-12.91
-14.16
-16.01
-18.07
-19.82
-20.70
-20.19
-17.98
-14.10
-8.96
-3.29
2.16
6.79
10.32
12.76
14.32
15.34
16.16
17.12
18.43
20.10
21.96
23.64
24.70
24.89
24.20
22.93
21.52
20.39
19.78
19.71
20.04
20.52
20.87
20.84
20.25
19.06
17.36
15.34
13.22
11.14
9.14
7.12
4.97
2.60
0.05
-2.58
-5.16
-7.62
-9.98
-12.20
-14.24
-15.99
-17.29
-18.05
-18.25
-17.98
-17.34
-16.46
-15.49
-14.69
-14.33
-14.77
-16.21
-18.57
-21.50
-24.44
-26.84
-28.38
-29.02
-28.86
-28.05
-26.54
-24.24
-21.07
-17.12
-12.67
-8.18
-4.04
-0.54
2.27
4.48
6.25
7.77
9.19
10.58
12.00
13.49
15.04
16.71
18.50
20.37
22.24
23.91
25.19
25.87
25.83
25.09
23.83
22.37
21.09
20.33
20.28
20.90
21.88
22.74
22.99
22.23
20.31
17.35
13.70
9.74
5.89
2.42
-0.50
-2.83
-4.60
-5.98
-7.23
-8.69
-10.68
-13.40
-16.76
-20.40
-23.76
-26.30
-27.68
-27.78
-26.79
-25.10
-23.19
-21.61
-20.87
-21.33
-23.04
-25.65
-28.42
-30.43
-30.84
-29.17
-25.41
-19.98
-13.57
-6.99
-1.01
3.78
7.02
8.72
9.25
9.19
9.18
9.65
10.75
12.32
14.07
15.62
16.60
16.63
15.46
13.01
9.58
5.82
2.54
0.41
-0.33
0.09
1.08
2.10
2.79
3.11
3.16
3.00
2.66
2.13
1.45
0.76
0.22
-0.15
-0.41
-0.75
-1.29
-2.06
-2.95
-3.79
-4.37
-4.64
-4.61
-4.49
-4.58
-5.21
-6.61
-8.79
-11.58
-14.66
-17.72
-20.54
-22.92
-24.60
-25.25
-24.52
-22.23
-18.56
-14.00
-9.21
-4.78
-1.06
1.80
3.84
5.11
5.68
5.66
5.30
4.88
4.70
4.90
5.44
6.18
6.94
7.61
8.12
8.48
8.66
8.65
8.45
8.08
7.64
7.25
6.97
6.83
6.77
6.68
6.40
5.84
4.97
3.92
2.91
2.18
1.89
1.97
2.19
2.22
1.83
0.99
-0.10
-1.14
-1.87
-2.25
-2.50
-2.96
-3.92
-5.44
-7.36
-9.38
-11.20
-12.72
-14.05
-15.36
-16.79
-18.33
-19.87
-21.21
-22.26
-22.96
-23.25
-22.93
-21.69
-19.18
-15.26
-10.17
-4.53
0.89
5.46
8.92
11.40
13.22
14.66
15.84
16.70
17.17
17.26
17.08
16.78
16.41
15.94
15.30
14.54
13.79
13.27
13.07
13.13
13.25
13.18
12.83
12.24
11.56
10.93
10.42
9.94
9.37
8.60
7.61
6.48
5.30
4.18
3.14
2.16
1.18
0.14
-0.99
-2.17
-3.33
-4.35
-5.12
-5.61
-5.84
-5.99
-6.27
-6.89
-7.95
-9.41
-11.07
-12.75
-14.33
-15.88
-17.54
-19.35
-21.18
-22.63
-23.14
-22.27
-19.85
-16.09
-11.52
-6.77
-2.44
1.07
3.60
5.19
6.02
6.37
6.54
6.84
7.44
8.41
9.66
10.95
12.05
12.79
13.14
13.19
13.07
12.91
12.79
12.73
12.69
12.61
12.40
12.01
11.48
10.88
10.32
9.89
9.58
9.32
9.00
8.52
7.89
7.17
6.46
5.82
5.26
4.71
4.05
3.18
1.94
0.27
-1.84
-4.24
-6.69
-8.94
-10.84
-12.38
-13.75
-15.25
-17.13
-19.51
-22.28
-25.11
-27.48
-28.82
-28.65
-26.69
-23.07
-18.22
-12.84
-7.66
-3.27
0.05
2.34
3.80
4.74
5.40
5.97
6.58
7.30
8.16
9.13
10.07
10.86
11.40
11.74
12.06
12.54
13.27
14.21
15.12
15.74
15.90
15.57
14.87
13.97
13.01
12.07
11.15
10.27
9.50
8.94
8.66
8.64
8.72
8.67
8.24
7.29
5.84
4.06
2.25
0.64
-0.63
-1.59
-2.39
-3.27
-4.42
-5.95
-7.77
-9.72
-11.61
-13.30
-14.82
-16.31
-17.98
-19.95
-22.16
-24.35
-26.11
-27.00
-26.64
-24.83
-21.57
-17.11
-11.92
-6.62
-1.86
1.87
4.41
5.90
6.73
7.33
7.98
8.83
9.83
10.94
12.15
13.41
14.62
15.61
16.18
16.26
15.96
15.49
15.10
14.89
14.82
14.70
14.38
13.81
13.09
12.35
11.66
10.99
10.25
9.37
8.39
7.48
6.88
6.70
6.87
7.10
7.06
6.50
5.38
3.89
2.31
0.81
-0.56
-1.89
-3.32
-4.89
-6.57
-8.28
-9.95
-11.50
-12.86
-13.89
-14.49
-14.67
-14.57
-14.51
-14.88
-15.92
-17.72
-20.09
-22.61
-24.73
-25.86
-25.49
-23.38
-19.62
-14.63
-9.13
-3.90
0.40
3.37
4.95
5.45
5.32
5.02
4.95
5.33
6.15
7.32
8.64
9.95
11.08
11.96
12.50
12.68
12.49
12.02
11.43
10.87
10.52
10.45
10.65
10.97
11.23
11.29
11.07
10.64
10.11
9.65
9.27
8.91
8.43
7.70
6.69
5.50
4.32
3.27
2.39
1.59
0.78
-0.07
-0.93
-1.69
-2.36
-3.04
-3.93
-5.19
-6.84
-8.72
-10.63
-12.46
-14.28
-16.28
-18.58
-21.15
-23.68
-25.77
-27.05
-27.21
-26.18
-23.94
-20.60
-16.37
-11.63
-6.84
-2.48
1.07
3.68
5.42
6.50
7.09
7.37
7.40
7.35
7.43
7.90
8.93
10.53
12.47
14.41
16.03
17.08
17.46
17.22
16.47
15.39
14.19
13.01
11.93
10.91
9.81
8.53
7.02
5.37
3.78
2.42
1.42
0.74
0.31
0.01
-0.29
-0.69
-1.28
-2.12
-3.15
-4.24
-5.19
-5.84
-6.12
-6.10
-5.93
-5.79
-5.83
-6.15
-6.84
-8.02
-9.74
-12.03
-14.81
-17.88
-20.90
-23.42
-24.96
-25.11
-23.64
-20.58
-16.26
-11.21
-6.02
-1.23
2.81
5.89
7.94
8.98
9.12
8.60
7.84
7.32
7.47
8.50
10.26
12.33
14.10
15.11
15.25
14.73
14.03
13.59
13.61
14.04
14.58
14.90
14.78
14.15
13.09
11.71
10.12
8.43
6.76
5.22
3.89
2.81
1.90
1.09
0.25
-0.63
-1.55
-2.47
-3.34
-4.19
-5.10
-6.14
-7.31
-8.55
-9.74
-10.77
-11.64
-12.46
-13.41
-14.73
-16.56
-18.90
-21.59
-24.31
-26.63
-28.05
-28.12
-26.56
-23.32
-18.67
-13.15
-7.40
-2.02
2.53
6.05
8.51
10.02
10.84
11.29
11.70
12.37
13.41
14.68
15.90
16.74
17.05
16.88
16.53
16.25
16.19
16.30
16.36
16.18
15.75
15.18
14.64
14.24
13.92
13.47
12.65
11.35
9.58
7.55
5.53
3.76
2.41
1.46
0.83
0.36
-0.11
-0.75
-1.69
-3.07
-4.94
-7.24
-9.76
-12.22
-14.28
-15.80
-16.86
-17.80
-19.06
-20.96
-23.48
-26.18
-28.27
-28.92
-27.56
-24.05
-18.82
-12.68
-6.61
-1.44
2.31
4.56
5.54
5.62
5.22
4.74
4.54
4.98
6.29
8.43
11.07
13.57
15.27
15.76
15.10
13.83
12.69
12.33
13.05
14.78
17.08
19.41
21.17
21.89
21.32
19.48
16.75
13.77
11.26
9.71
9.26
9.55
9.97
9.90
8.98
7.27
5.14
3.09
1.46
0.35
-0.44
-1.23
-2.27
-3.60
-5.14
-6.74
-8.29
-9.86
-11.55
-13.50
-15.78
-18.42
-21.37
-24.52
-27.65
-30.41
-32.39
-33.14
-32.37
-29.99
-26.10
-21.01
-15.15
-9.14
-3.61
0.85
3.89
5.56
6.21
6.42
6.68
7.31
8.34
9.65
11.09
12.55
13.99
15.34
16.46
17.20
17.44
17.20
16.61
15.88
15.20
14.60
14.01
13.22
12.00
10.23
7.93
5.31
2.70
0.46
-1.18
-2.17
-2.66
-2.88
-3.06
-3.35
-3.77
-4.31
-4.85
-5.31
-5.58
-5.63
-5.57
-5.66
-6.24
-7.61
-9.86
-12.78
-16.01
-19.17
-22.03
-24.54
-26.68
-28.24
-28.78
-27.79
-24.99
-20.58
-15.19
-9.68
-4.75
-0.67
2.68
5.61
8.31
10.71
12.58
13.70
14.06
13.86
13.42
12.97
12.56
12.12
11.62
11.13
10.86
10.98
11.57
12.48
13.40
14.02
14.11
13.62
12.67
11.45
10.13
8.84
7.65
6.65
5.88
5.40
5.21
5.19
5.22
5.06
4.54
3.57
2.20
0.58
-1.02
-2.40
-3.41
-4.05
-4.47
-4.86
-5.42
-6.23
-7.27
-8.44
-9.60
-10.70
-11.79
-12.99
-14.49
-16.40
-18.71
-21.22
-23.54
-25.18
-25.65
-24.66
-22.23
-18.66
-14.46
-10.12
-5.98
-2.21
1.16
4.08
6.41
7.97
8.69
8.75
8.54
8.61
9.36
10.86
12.82
14.67
15.87
16.10
15.44
14.30
13.20
12.55
12.52
12.97
13.66
14.31
14.76
14.99
14.98
14.70
14.11
13.18
11.97
10.62
9.35
8.34
7.66
7.31
7.14
7.00
6.67
5.98
4.89
3.46
1.89
0.38
-0.90
-1.99
-3.02
-4.23
-5.72
-7.45
-9.19
-10.68
-11.78
-12.53
-13.12
-13.79
-14.75
-16.05
-17.63
-19.34
-21.05
-22.65
-24.01
-24.95
-25.17
-24.31
-22.09
-18.49
-13.79
-8.55
-3.43
1.03
4.52
7.03
8.72
9.80
10.43
10.75
10.90
10.99
11.18
11.51
11.94
12.31
12.50
12.44
12.15
11.70
11.16
10.58
10.01
9.52
9.19
9.13
9.39
9.88
10.40
10.64
10.36
9.51
8.22
6.82
5.67
5.00
4.84
4.97
5.01
4.62
3.62
2.08
0.32
-1.24
-2.28
-2.73
-2.80
-2.95
-3.56
-4.81
-6.55
-8.43
-10.14
-11.49
-12.55
-13.48
-14.46
-15.55
-16.75
-18.07
-19.49
-20.90
-22.03
-22.38
-21.41
-18.80
-14.64
-9.52
-4.33
0.07
3.12
4.73
5.21
5.08
4.79
4.68
4.86
5.35
6.13
7.19
8.42
9.67
10.67
11.22
11.21
10.75
10.12
9.66
9.59
9.99
10.67
11.30
11.52
11.07
9.84
7.94
5.70
3.51
1.83
0.90
0.70
0.95
1.21
1.05
0.31
-0.90
-2.28
-3.44
-4.19
-4.50
-4.56
-4.57
-4.73
-5.09
-5.64
-6.33
-7.12
-8.03
-9.08
-10.35
-11.90
-13.78
-15.92
-18.15
-20.15
-21.53
-21.93
-21.09
-18.95
