1530694276.000000
1.000000
55.00
68.50
74.00
76.25
77.60
78.33
79.00
78.00
77.22
76.50
75.82
75.08
74.46
73.64
72.93
72.38
71.88
71.50
71.16
70.90
70.67
70.45
70.22
69.96
69.72
69.50
69.30
69.11
68.93
68.80
68.68
68.56
68.45
68.35
68.23
68.11
68.00
67.89
67.85
67.82
67.88
67.98
68.07
68.14
68.18
68.17
68.19
68.21
68.14
68.04
67.98
67.90
67.75
67.61
67.44
67.64
67.89
68.12
68.34
68.63
69.12
69.18
69.22
69.30
69.38
69.47
69.67
70.05
70.25
70.45
70.63
70.80
70.92
71.12
71.30
71.48
71.67
71.83
72.00
72.17
72.33
72.50
72.68
72.87
73.05
73.22
73.37
73.47
73.57
73.65
73.97
74.28
74.58
74.88
75.22
75.48
75.70
75.88
76.03
76.17
76.23
76.28
76.33
76.40
76.48
76.60
76.70
76.82
76.93
77.05
77.13
77.27
77.42
77.53
77.67
77.95
78.12
78.30
78.45
78.50
78.58
78.65
78.70
78.75
78.85
78.98
79.03
79.08
79.33
79.58
79.87
80.15
80.45
80.73
81.03
81.30
81.57
81.82
82.07
82.30
82.53
82.77
83.00
83.20
83.45
83.63
83.85
84.07
84.25
84.38
84.23
84.08
83.93
83.68
83.42
83.22
83.08
83.00
82.92
82.85
82.80
82.67
82.55
82.42
82.25
82.08
81.93
81.80
81.77
81.77
81.75
81.70
81.68
81.70
81.75
81.28
80.95
80.63
80.27
79.88
79.47
79.00
78.50
77.98
77.43
76.87
76.27
75.68
75.08
74.52
73.95
73.45
72.97
72.47
71.97
71.45
70.93
70.42
69.90
69.38
69.12
68.85
68.58
68.37
68.08
67.85
67.60
67.38
67.17
66.98
66.78
66.47
66.20
66.05
65.92
65.78
65.60
65.40
65.18
64.95
64.70
64.52
64.32
64.15
64.02
63.92
63.80
63.67
63.48
63.30
63.15
62.98
62.80
62.62
62.43
62.33
62.13
61.90
61.73
61.60
61.52
61.47
61.43
61.40
61.35
61.30
61.23
61.18
61.12
61.03
60.97
60.87
60.80
60.75
60.72
60.72
60.72
60.73
60.75
60.77
60.53
60.30
60.05
59.75
59.45
59.17
58.87
58.57
58.28
58.32
58.42
58.62
58.75
58.85
58.92
58.98
59.03
59.07
59.12
59.15
59.22
59.28
59.35
59.38
59.43
59.43
59.45
59.45
59.47
59.48
59.47
59.47
59.52
59.58
59.62
59.63
59.72
59.83
59.97
60.07
60.28
60.50
60.70
60.90
61.13
61.40
61.68
61.85
61.97
62.10
62.23
62.37
62.50
62.63
62.72
62.78
62.83
62.87
62.88
62.88
62.87
62.83
62.82
62.85
62.90
62.98
63.10
63.23
63.38
63.23
63.08
62.95
62.85
62.75
62.68
62.60
62.57
62.57
62.55
62.57
62.57
62.55
62.55
62.55
62.55
62.55
62.53
62.52
62.50
62.48
62.48
62.48
62.45
62.35
62.25
62.08
61.88
61.67
61.45
61.27
60.95
60.63
60.37
60.13
59.87
59.60
59.32
59.15
59.05
58.93
58.80
58.70
58.58
58.47
58.38
58.30
58.23
58.17
58.12
58.10
58.08
58.08
58.08
58.05
58.05
58.03
58.02
58.03
58.03
58.05
58.08
58.13
58.18
58.20
58.17
58.13
58.08
58.18
58.27
58.32
58.35
58.32
58.28
58.28
58.25
58.27
58.27
58.27
58.27
58.27
58.25
58.25
58.28
58.37
58.45
58.53
58.60
58.67
58.77
58.85
58.93
59.03
59.13
59.20
59.28
59.32
59.35
59.37
59.37
59.35
59.32
59.27
59.23
59.20
59.17
59.15
59.15
59.15
59.17
59.15
59.15
59.13
59.12
59.13
59.12
59.12
59.10
59.07
59.05
59.03
58.98
58.93
58.90
58.92
58.97
59.03
59.10
59.00
58.95
58.92
58.90
58.95
59.00
59.03
59.08
59.10
59.13
59.17
59.22
59.27
59.35
59.43
59.48
59.53
59.60
59.68
59.78
59.85
59.88
59.90
59.97
60.00
60.02
60.03
60.05
60.10
60.23
60.40
60.57
60.70
60.82
60.90
60.95
60.98
61.02
61.05
61.07
61.10
61.13
61.18
61.23
61.28
61.33
61.38
61.43
61.47
61.47
61.43
61.38
61.30
61.32
61.35
61.35
61.38
61.40
61.43
61.50
61.58
61.62
61.63
61.63
61.65
61.63
61.63
61.67
61.68
61.68
61.70
61.67
61.60
61.53
61.43
61.33
61.23
61.12
60.98
60.87
60.80
60.75
60.75
60.70
60.67
60.65
60.63
60.60
60.55
60.42
60.23
60.08
59.98
59.93
59.90
59.88
59.88
59.88
59.87
59.87
59.87
59.87
59.90
59.93
59.98
59.95
59.93
59.93
59.93
59.97
60.02
60.08
60.17
60.17
60.13
60.13
60.12
60.15
60.22
60.25
60.28
60.33
60.42
60.53
60.67
60.83
60.98
61.20
61.43
61.73
61.98
62.27
62.57
62.58
62.63
62.68
62.75
62.83
62.97
63.10
63.22
63.32
63.40
63.48
63.57
63.62
63.58
63.58
63.58
63.62
63.67
63.68
63.70
63.70
63.72
63.73
63.75
63.75
63.77
63.77
63.77
63.75
63.70
63.65
63.60
63.63
63.65
63.65
63.65
63.65
63.65
63.65
63.67
63.70
63.77
63.83
63.88
63.92
63.90
63.90
63.88
63.88
63.85
63.80
63.75
63.70
63.65
63.45
63.25
62.97
62.70
62.45
62.23
62.30
62.35
62.43
62.52
62.58
62.58
62.57
62.52
62.45
62.37
62.28
62.18
62.10
62.17
62.22
62.28
62.33
62.38
62.45
62.52
62.58
62.65
62.68
62.68
62.68
62.67
62.65
62.65
62.65
62.65
62.65
62.63
62.63
62.63
62.63
62.63
62.63
62.65
62.67
62.67
62.67
62.62
62.58
62.57
62.52
62.47
62.42
62.35
62.27
62.20
62.13
62.05
61.95
61.85
61.80
61.70
61.63
61.55
61.42
61.23
61.38
61.53
61.68
61.82
61.97
62.17
62.33
62.57
62.80
63.03
63.30
63.55
63.80
63.97
64.07
64.12
64.17
64.22
64.27
64.78
65.32
65.83
66.40
67.00
67.65
68.33
69.03
69.70
70.42
71.07
71.72
72.32
72.88
73.48
73.98
74.55
75.08
75.68
76.12
76.55
77.02
77.47
77.85
78.23
78.63
79.08
79.53
80.00
80.48
81.05
81.58
82.18
82.62
82.93
83.23
83.58
83.87
84.20
84.57
84.97
85.00
85.03
85.02
85.03
85.02
85.00
84.97
84.90
84.85
84.80
84.70
84.62
84.70
84.85
84.98
85.17
85.38
85.62
85.90
85.73
85.55
85.37
85.15
85.00
84.78
84.53
84.27
84.02
83.68
83.30
82.95
82.68
82.38
82.03
81.67
81.32
81.15
80.93
80.93
81.03
81.08
81.15
81.22
81.28
81.38
81.43
81.48
81.50
81.52
81.58
81.67
81.68
81.83
82.07
82.33
82.63
83.00
83.33
83.70
84.00
84.35
84.72
85.08
85.42
85.72
85.98
86.30
86.68
87.05
87.42
87.82
88.28
88.60
88.88
89.20
89.47
89.68
89.93
90.02
90.08
90.10
90.15
90.20
90.17
90.17
90.27
90.33
90.42
90.53
90.77
90.97
91.12
91.30
91.50
91.83
92.10
92.17
92.20
92.17
92.03
91.90
91.77
91.58
91.40
91.20
91.02
90.83
90.68
90.63
90.38
90.18
90.00
89.85
89.75
89.67
89.55
89.48
89.50
89.45
89.50
89.57
89.63
89.77
89.90
90.15
90.43
90.72
90.95
91.23
91.53
91.82
92.05
92.20
92.35
92.50
92.68
92.87
93.00
93.27
93.57
93.92
94.28
94.63
95.00
95.45
95.80
96.15
96.47
96.78
97.00
97.27
97.65
97.98
98.33
98.67
98.98
99.43
99.75
100.08
100.42
100.78
101.20
101.70
102.05
102.38
102.68
102.93
103.15
103.30
103.52
103.72
103.93
104.15
104.35
104.60
104.85
105.05
105.17
105.27
105.35
105.22
105.07
104.90
104.75
104.58
104.42
104.27
104.08
103.82
103.58
103.30
102.97
102.68
102.38
102.12
101.87
101.63
101.43
101.33
101.18
101.00
100.82
100.63
100.43
100.15
99.90
99.62
99.27
98.95
98.73
98.48
98.15
97.87
97.60
97.47
97.35
97.15
97.08
97.00
96.92
96.72
96.50
96.28
96.20
96.13
96.13
96.20
96.30
96.38
96.47
96.52
96.48
96.43
96.40
96.27
96.10
95.95
95.87
95.85
95.85
96.03
96.22
96.38
96.53
96.65
96.73
96.78
96.82
96.90
96.97
97.10
97.32
97.57
97.80
98.03
98.25
98.47
98.63
98.68
98.77
98.90
98.97
98.92
98.85
98.75
98.63
98.58
98.65
98.67
98.80
98.93
99.08
99.25
99.42
99.38
99.28
99.12
98.92
98.75
98.58
98.50
98.42
98.38
98.32
98.22
98.07
97.93
97.80
97.67
97.55
97.45
97.42
97.35
97.30
97.25
97.20
97.08
96.93
96.78
96.65
96.48
96.33
96.12
95.92
95.70
95.42
95.20
95.05
94.92
94.88
94.78
94.65
94.52
94.40
94.30
94.18
94.05
93.98
93.95
93.90
93.83
93.80
93.93
94.10
94.33
94.57
94.80
95.02
95.25
95.37
95.47
95.55
95.68
95.77
95.93
96.17
96.50
96.87
97.28
97.72
98.18
98.63
99.05
99.52
100.05
100.57
101.02
101.45
101.83
102.20
102.55
102.78
103.05
103.25
103.47
103.73
104.07
104.40
104.73
105.13
105.55
105.97
106.47
106.93
107.42
107.97
108.47
108.90
109.32
109.62
109.97
110.32
110.62
110.92
111.20
111.52
111.82
112.07
112.25
112.42
112.58
112.73
112.82
112.87
112.95
113.03
113.12
113.20
113.27
113.32
113.42
113.52
113.47
113.45
113.45
113.43
113.38
113.35
113.27
113.18
113.03
112.87
112.68
112.47
112.23
112.03
111.98
111.92
111.85
111.75
111.63
111.60
111.53
111.52
111.45
111.38
111.32
111.23
111.13
110.90
110.67
110.38
110.12
109.88
109.63
109.55
109.63
109.80
109.98
110.15
110.28
110.40
110.53
110.65
110.85
111.07
111.40
111.67
111.95
112.23
112.62
113.00
113.43
113.92
114.32
114.82
115.30
115.72
116.12
116.67
117.13
117.47
117.75
118.08
118.43
118.78
119.13
119.55
119.92
120.32
120.75
121.25
121.72
122.20
122.58
122.80
122.92
123.08
123.20
123.40
123.58
123.78
123.98
124.17
124.32
124.40
124.48
124.58
124.70
124.80
124.73
124.73
124.72
124.72
124.72
124.48
124.12
123.70
123.25
122.83
122.45
122.08
121.77
121.48
121.12
120.72
120.20
119.73
119.28
118.83
118.30
117.77
117.23
116.68
116.15
115.53
114.95
114.42
113.92
113.40
112.90
112.57
112.38
112.12
111.83
111.58
111.33
111.02
110.73
110.40
110.07
109.68
109.33
108.95
108.62
108.47
108.32
108.17
108.12
107.98
107.92
107.87
107.87
108.00
108.00
108.03
108.03
108.03
108.03
107.97
108.05
108.10
108.15
108.17
108.18
108.22
108.23
108.25
108.30
108.33
108.32
108.25
108.10
107.93
107.77
107.60
107.47
107.47
107.47
107.52
107.53
107.58
107.65
107.72
107.78
107.83
107.87
107.90
107.93
107.85
107.78
107.68
107.58
107.50
107.38
107.23
107.07
106.90
106.73
106.55
106.35
106.13
105.88
105.75
105.63
105.43
105.20
104.97
104.72
104.52
104.40
104.27
104.15
103.90
103.88
103.90
103.93
103.93
103.92
104.00
104.03
104.05
104.03
104.02
104.02
104.08
104.13
104.23
104.30
104.35
104.45
104.60
104.78
104.97
105.15
105.33
105.48
105.50
105.48
105.42
105.38
105.33
105.23
105.12
105.10
105.08
105.07
105.07
105.03
104.98
104.92
104.80
104.70
104.57
104.43
104.30
104.17
104.00
103.83
103.68
103.53
103.08
102.68
102.23
101.75
101.30
100.85
100.38
99.90
99.40
98.78
98.13
97.43
96.75
96.05
95.35
94.63
93.92
93.22
92.53
91.92
91.35
90.83
90.38
89.92
89.45
89.02
88.53
88.08
87.67
87.30
86.93
86.58
86.27
85.95
85.63
85.30
84.97
84.65
84.33
83.90
83.47
83.07
82.68
82.20
81.73
81.25
80.75
80.32
79.90
79.52
79.20
78.95
78.73
78.48
78.25
78.02
77.78
77.52
77.23
76.95
76.97
76.97
76.93
76.92
77.00
77.08
77.20
77.33
77.45
77.57
77.68
77.83
77.98
78.12
78.25
78.43
78.67
78.93
79.18
79.47
79.73
79.95
80.02
80.08
80.18
80.22
80.25
80.27
80.33
80.38
80.42
80.47
80.48
80.48
80.48
80.48
80.48
80.48
80.45
80.52
80.53
80.55
80.57
80.58
80.60
80.63
80.67
80.65
80.62
80.57
80.40
80.17
79.92
79.67
79.45
79.25
79.07
78.92
78.78
78.68
78.62
78.57
78.52
78.47
78.33
78.23
78.10
78.00
77.92
77.85
77.85
77.90
77.92
77.95
77.93
77.93
77.88
77.78
77.68
77.58
77.47
77.30
77.23
77.27
77.27
77.33
77.42
77.50
77.52
77.50
77.50
77.43
77.35
77.28
77.18
77.12
77.10
77.12
77.13
77.20
77.33
77.47
77.60
77.73
77.83
77.92
77.90
77.87
77.77
77.70
77.77
77.80
77.83
77.88
77.90
77.90
77.90
77.80
77.67
77.67
77.67
77.67
77.68
77.60
77.50
77.42
77.35
77.27
77.17
77.08
76.97
76.82
76.70
76.62
76.53
76.42
76.30
76.17
76.05
75.87
75.75
75.70
75.63
75.50
75.37
75.23
75.07
74.92
74.78
74.65
74.55
74.52
74.48
74.43
74.40
74.40
74.30
74.17
74.08
73.93
73.77
73.60
73.37
73.15
72.95
72.72
72.28
72.52
72.80
73.05
73.27
73.50
73.78
74.07
74.37
74.68
74.98
75.37
75.75
75.98
76.20
76.33
76.48
76.67
76.88
77.08
77.28
77.45
77.62
77.78
77.93
78.07
78.18
78.27
78.38
78.50
78.63
78.80
78.93
79.13
79.25
79.37
79.52
79.65
79.78
79.88
80.00
80.15
80.22
80.27
80.10
79.93
79.73
79.53
79.50
79.45
79.50
79.57
79.62
79.63
79.65
79.67
79.75
79.80
79.87
79.98
80.43
80.27
80.17
80.07
79.95
79.80
79.62
79.43
79.20
78.97
78.80
78.65
78.55
78.47
78.38
78.37
78.35
78.38
78.38
78.35
78.30
78.25
78.20
78.20
78.07
77.97
77.90
77.83
77.78
77.75
77.65
77.47
77.27
77.02
76.83
76.63
76.40
76.25
76.08
75.88
75.70
75.45
75.25
75.10
75.17
75.30
75.50
75.63
75.62
75.58
75.52
75.33
75.13
74.98
74.85
74.72
74.58
74.47
74.33
74.25
74.10
73.93
74.02
74.12
74.20
74.30
74.45
74.62
74.73
74.87
74.93
75.00
75.03
75.10
75.15
75.18
75.22
75.33
75.55
75.77
76.00
76.25
76.55
76.83
77.28
77.67
77.98
78.25
78.47
78.67
78.93
79.27
79.63
80.02
80.35
80.70
81.00
81.25
81.52
81.80
82.07
82.35
82.68
83.03
83.37
83.63
83.85
84.22
84.63
85.12
85.60
86.20
86.87
87.53
88.20
88.85
89.50
90.17
90.82
91.42
92.03
92.58
92.83
92.95
93.07
93.25
93.35
93.47
93.60
93.75
93.92
94.12
94.37
94.60
94.83
95.05
95.20
95.25
95.20
95.03
94.88
94.75
94.50
94.20
93.88
93.62
93.37
93.10
92.87
92.67
92.48
92.30
92.13
91.97
91.87
91.77
91.72
91.63
91.55
91.47
91.38
91.32
91.25
91.13
91.02
90.90
90.85
90.85
90.80
90.73
90.70
90.68
90.67
90.67
90.70
90.73
90.77
90.77
90.77
90.75
90.73
90.78
90.83
91.00
91.20
91.32
91.47
91.60
91.77
91.82
91.87
91.88
91.87
91.87
91.90
91.97
92.05
92.18
92.35
92.65
92.88
93.05
93.32
93.55
93.75
93.93
94.13
94.48
94.82
95.00
95.22
95.43
95.63
95.87
96.02
96.27
96.52
96.78
97.10
97.38
97.45
97.45
97.43
97.47
97.52
97.57
97.57
97.45
97.35
97.20
97.02
96.82
96.57
96.27
95.88
95.57
95.23
94.90
94.77
94.78
94.80
94.82
94.83
94.87
94.90
95.00
95.12
95.42
95.75
96.20
96.63
97.07
97.48
97.85
98.20
98.48
98.78
99.03
99.22
99.37
99.53
99.73
99.90
100.08
100.32
100.53
100.72
100.82
100.97
101.23
101.50
101.80
102.05
102.23
102.47
102.62
102.72
102.83
102.92
103.12
103.53
104.03
104.48
104.93
105.40
105.80
106.30
106.80
107.28
107.77
108.22
108.65
109.12
109.53
109.98
110.40
110.80
111.20
111.43
111.53
111.65
111.78
111.93
112.07
112.20
112.27
112.28
112.13
111.95
111.72
111.50
111.27
111.07
110.87
110.67
110.58
110.48
110.45
110.45
110.52
110.58
110.65
110.73
110.82
110.87
110.93
110.98
111.07
111.10
111.13
111.12
111.03
111.03
111.10
111.15
111.18
111.27
111.43
111.55
111.63
111.73
111.83
111.98
112.05
112.15
112.32
112.40
112.67
112.92
113.18
113.47
113.82
114.18
114.63
115.10
115.48
115.87
116.32
116.70
117.10
117.55
117.95
118.32
118.68
118.80
118.98
119.20
119.40
119.62
119.88
120.17
120.48
120.87
121.22
121.58
121.92
122.32
122.70
123.12
123.48
123.88
124.32
124.77
125.42
125.97
126.50
127.13
127.75
128.37
128.93
129.47
130.03
130.60
131.17
131.83
132.52
133.17
133.68
134.23
134.70
134.98
135.23
135.42
135.68
135.83
135.95
136.02
135.88
135.77
135.63
135.50
135.30
135.03
134.77
134.50
134.32
134.07
133.55
132.95
132.43
131.83
131.27
130.70
130.18
129.90
129.58
129.30
129.02
128.70
128.37
128.02
127.62
127.17
126.77
126.32
125.83
125.32
124.80
124.22
123.73
123.18
122.67
122.13
121.42
120.77
120.05
119.20
118.37
117.57
116.75
115.98
115.27
114.52
113.77
112.90
112.03
111.20
110.40
109.58
108.80
108.17
107.52
106.90
106.08
105.35
104.60
103.92
103.27
102.63
102.00
101.40
100.85
100.35
99.83
99.30
98.75
98.30
98.07
97.98
97.87
97.78
97.65
97.57
97.48
97.43
97.38
97.25
97.15
97.10
97.03
96.93
96.83
96.67
96.50
96.40
96.32
96.22
96.13
96.08
95.80
95.58
95.32
95.20
95.05
94.98
95.00
95.08
95.15
95.10
95.12
95.12
95.00
94.87
94.70
94.52
94.28
94.03
93.77
93.48
93.23
93.00
92.77
92.57
92.53
92.48
92.47
92.42
92.37
92.28
92.25
92.17
92.00
91.88
91.77
91.67
91.58
91.45
91.33
91.23
91.07
90.92
90.78
90.62
90.40
90.15
89.88
89.65
89.42
89.20
88.98
88.80
88.63
88.42
88.18
87.92
87.65
87.37
87.07
86.77
86.60
86.37
86.13
85.75
85.40
85.00
84.63
84.32
83.92
83.67
83.37
83.08
82.85
82.67
82.48
82.28
82.12
81.90
81.70
81.53
81.32
81.07
80.83
80.60
80.38
80.13
79.90
79.58
79.27
78.98
78.82
78.67
78.57
78.42
78.30
78.15
78.00
77.92
77.85
77.80
77.72
77.60
77.50
77.38
77.20
77.07
76.95
76.82
76.65
76.47
76.30
76.15
76.02
75.97
76.02
76.05
76.08
76.12
76.15
76.18
76.23
76.33
76.43
76.52
76.63
76.75
76.83
76.92
77.05
77.12
77.18
77.17
77.17
77.13
77.12
77.10
77.08
77.15
77.22
77.30
77.43
77.62
77.78
77.93
78.03
78.10
78.15
78.32
78.62
78.90
79.07
79.25
79.43
79.58
79.72
79.88
80.03
80.13
80.22
80.20
80.22
80.27
80.33
80.40
80.47
80.50
80.55
80.63
80.73
80.80
80.90
80.98
81.07
81.15
81.13
81.10
81.10
81.08
81.07
81.07
81.10
81.17
81.25
81.35
81.42
81.50
81.60
81.67
81.73
81.82
81.92
82.05
82.25
82.43
82.62
82.85
83.12
83.47
83.80
84.13
84.48
84.83
85.20
85.55
85.88
86.22
86.55
86.87
86.97
87.08
87.12
87.15
87.18
87.23
87.18
87.10
87.02
86.98
86.93
86.95
86.95
86.93
86.92
86.97
87.07
87.20
87.32
87.42
87.45
87.53
87.63
87.72
87.77
87.83
87.92
88.07
88.18
88.30
88.42
88.47
88.48
88.47
88.43
88.40
88.37
88.33
88.28
88.22
88.17
88.10
88.07
88.08
88.07
88.03
87.95
87.83
87.72
87.45
87.18
86.90
86.73
86.55
86.37
86.03
85.73
85.62
85.53
85.55
85.62
85.68
85.80
85.92
86.05
86.22
86.55
86.87
87.18
87.47
87.73
87.95
88.20
88.43
88.68
88.93
89.18
89.42
89.67
89.92
90.25
90.53
90.75
90.98
91.25
91.52
91.75
92.00
92.25
92.53
92.87
93.28
93.70
94.13
94.58
95.02
95.45
95.88
96.30
96.73
97.20
97.68
98.12
98.55
99.00
99.42
99.82
100.22
100.58
100.98
101.33
101.70
101.97
102.20
102.38
102.73
103.05
103.20
103.20
103.07
102.97
102.87
102.75
102.63
102.45
102.23
101.95
101.68
101.48
101.35
101.15
100.98
100.78
100.57
100.22
99.83
99.60
99.37
98.93
98.53
98.12
97.85
97.58
97.37
97.13
96.92
96.70
96.43
96.32
96.17
95.93
95.70
95.45
95.18
94.90
94.63
94.37
94.08
93.82
93.58
93.28
92.98
92.73
92.52
92.22
91.98
91.80
91.72
91.60
91.57
91.57
91.50
91.40
91.22
91.12
91.02
91.03
90.90
90.88
90.90
90.88
90.88
90.88
90.87
90.90
90.93
90.97
91.02
91.12
91.20
91.40
91.52
91.65
91.83
92.15
92.55
92.85
93.03
93.40
93.75
94.10
94.33
94.72
95.03
95.38
95.73
96.08
96.43
96.68
96.93
97.23
97.50
97.77
97.97
98.15
98.37
98.60
98.83
99.08
99.33
99.58
99.92
100.20
100.42
100.67
100.90
101.13
101.22
101.28
101.30
101.35
101.47
101.57
101.77
101.93
102.12
102.22
102.48
102.75
103.00
103.32
103.57
103.77
103.93
104.12
104.32
104.53
104.88
105.13
105.33
105.50
105.72
105.95
106.17
106.40
106.53
106.60
106.80
107.03
107.27
107.47
107.65
107.65
107.73
107.78
107.87
107.97
108.10
108.18
108.33
108.50
108.70
108.93
109.30
109.67
109.97
110.38
110.85
111.30
111.72
112.17
112.52
112.90
113.22
113.57
113.90
114.23
114.63
115.10
115.55
115.98
116.38
116.80
117.22
117.63
118.03
118.43
118.82
119.20
119.60
119.93
120.28
120.67
121.08
121.48
121.87
122.23
122.43
122.60
122.78
122.95
123.15
123.33
123.50
123.65
123.83
124.07
124.27
124.43
124.62
124.82
124.98
125.17
125.28
125.42
125.48
125.55
125.58
125.65
125.67
125.65
125.62
125.55
125.42
125.30
125.20
124.97
124.68
124.42
124.13
123.85
123.60
123.37
123.22
123.03
122.88
122.73
122.58
122.42
122.23
122.02
121.82
121.60
121.42
121.22
121.00
120.80
120.63
120.47
120.30
120.17
120.07
119.98
119.92
119.85
119.78
119.72
119.68
119.65
119.60
119.55
119.50
119.42
119.35
119.27
119.17
119.05
118.95
118.83
118.72
118.60
118.50
118.42
118.33
118.25
118.15
118.03
117.92
117.75
117.60
117.45
117.28
117.13
116.98
116.83
116.70
116.53
116.37
116.18
116.02
115.80
115.52
115.18
114.82
114.43
114.05
113.67
113.18
112.70
112.23
111.82
111.38
110.93
110.45
109.97
109.47
109.00
108.52
107.98
107.45
106.88
106.30
105.65
105.00
104.35
103.68
103.05
102.42
101.77
101.10
100.47
99.83
99.23
98.60
97.95
97.28
96.57
95.88
95.23
94.55
93.90
93.30
92.72
92.17
91.73
91.27
90.93
90.58
90.25
89.88
89.52
89.13
88.73
88.30
87.87
87.42
86.98
86.60
86.23
85.87
85.57
85.32
85.22
85.13
85.07
85.00
84.92
84.93
84.92
84.95
84.95
84.95
84.97
84.98
85.03
85.13
85.15
85.18
85.25
85.35
85.47
85.60
85.82
86.03
86.27
86.52
86.70
86.77
86.87
87.00
87.13
87.28
87.42
87.60
87.82
88.07
88.38
88.67
88.93
89.23
89.47
89.65
89.80
89.92
89.90
89.93
89.87
89.83
89.80
89.82
89.82
89.88
89.93
90.02
90.10
90.20
90.32
90.45
90.58
90.72
90.78
90.93
91.02
91.08
91.12
91.12
91.08
91.03
91.13
91.20
91.45
91.70
91.92
92.17
92.38
92.60
92.85
93.05
93.30
93.50
93.70
93.88
94.05
94.23
94.40
94.57
94.75
95.05
95.38
95.73
96.08
96.38
96.72
97.03
97.30
97.55
97.78
98.00
98.22
98.42
98.65
98.97
99.28
99.60
99.97
100.37
100.77
101.10
101.43
101.75
102.08
102.38
102.72
103.03
103.38
103.80
104.23
104.63
105.10
105.53
106.05
106.48
106.90
107.35
107.82
108.33
108.90
109.48
109.88
110.27
110.45
110.65
110.88
111.03
111.18
111.30
111.37
111.45
111.47
111.50
111.53
111.58
111.63
111.67
111.72
111.77
111.85
111.93
111.98
112.02
112.03
112.08
112.10
112.08
112.12
112.15
112.20
112.27
112.33
112.43
112.53
112.60
112.68
112.77
112.82
112.82
112.80
112.82
112.80
112.77
112.75
112.75
112.75
112.77
112.75
112.67
112.57
112.45
112.25
112.08
111.90
111.73
111.48
111.23
110.98
110.72
110.45
110.18
109.98
109.80
109.67
109.53
109.42
109.37
109.33
109.32
109.33
109.37
109.45
109.53
109.62
109.68
109.75
109.82
109.87
109.90
109.90
109.90
109.90
109.90
109.90
109.90
109.92
109.98
110.03
110.07
110.08
110.07
110.05
110.02
109.98
109.92
109.87
109.83
109.80
109.80
109.82
109.80
109.80
109.82
109.80
109.80
109.82
109.85
109.90
109.93
109.93
109.93
109.93
109.92
109.88
109.83
109.87
109.88
109.93
110.00
110.03
110.07
110.10
110.10
110.08
110.07
110.07
110.07
110.07
110.07
110.07
110.05
110.00
109.95
109.88
109.80
109.75
109.73
109.70
109.68
109.68
109.67
109.65
109.65
109.67
109.70
109.73
109.77
109.80
109.85
109.82
109.82
109.83
109.85
109.90
109.95
110.13
110.28
110.43
110.62
110.82
111.05
111.32
111.58
111.98
112.32
112.67
112.98
113.28
113.58
113.93
114.25
114.57
114.88
115.25
115.58
115.92
116.27
116.67
117.02
117.43
117.85
118.28
118.72
118.73
118.75
118.68
118.60
118.50
118.40
118.30
118.18
118.07
117.97
117.88
117.80
117.68
117.52
117.28
117.07
116.87
116.60
116.35
116.08
115.75
115.40
115.05
114.65
114.23
113.78
113.30
112.82
112.32
111.78
111.13
110.50
109.72
108.90
108.10
107.28
106.42
105.58
104.73
103.85
102.88
101.93
100.98
100.05
99.12
98.33
97.52
96.73
95.95
95.15
94.30
93.53
92.75
91.98
91.17
90.32
89.45
88.62
87.73
86.93
86.53
86.10
85.70
85.32
84.97
84.52
84.08
83.68
83.28
82.80
82.30
81.87
81.43
81.02
80.67
80.28
79.73
79.30
78.92
78.52
78.17
77.82
77.48
77.23
77.03
76.87
76.82
76.75
76.70
76.67
76.73
76.77
76.78
76.87
76.97
77.07
77.12
77.17
77.18
77.23
77.15
77.27
77.32
77.52
77.70
77.75
77.82
77.90
77.98
78.10
78.25
78.37
78.45
78.58
78.72
78.92
79.12
79.33
79.55
79.65
79.72
79.82
79.95
80.03
79.88
79.83
79.78
79.73
79.70
79.73
79.78
79.78
79.77
79.72
79.68
79.67
79.82
79.97
80.07
80.20
80.35
80.58
80.75
80.87
80.93
80.98
81.02
81.05
81.00
80.97
80.80
80.65
80.58
80.53
80.52
80.43
80.43
80.47
80.55
80.65
80.83
80.83
80.85
80.73
80.65
80.58
80.50
80.40
80.28
80.15
80.10
80.10
80.10
80.03
79.95
79.85
79.73
79.60
79.50
79.43
79.40
79.37
79.32
79.33
79.55
79.75
79.93
80.10
80.28
80.47
80.77
81.02
81.37
81.80
82.20
82.62
83.02
83.25
83.48
83.70
83.90
84.02
84.22
84.45
84.80
85.17
85.55
85.93
86.43
86.88
87.42
87.95
88.40
88.82
88.90
88.97
89.00
88.98
88.97
88.88
89.13
89.38
89.65
89.93
90.20
90.45
90.72
91.03
91.35
91.67
91.88
92.05
92.18
92.32
92.45
92.58
92.72
92.83
92.90
92.97
93.05
93.15
93.27
93.28
93.32
93.38
93.47
93.58
93.55
93.55
93.40
93.27
93.05
92.77
92.48
92.25
92.00
91.90
91.78
91.72
91.68
91.70
91.68
91.63
91.48
91.40
91.32
91.23
91.10
90.97
90.90
90.75
90.62
90.48
90.60
90.72
90.85
90.97
91.07
91.23
91.08
90.93
90.82
90.68
90.57
90.45
90.32
90.10
89.90
89.77
89.62
89.45
89.33
89.30
89.25
89.25
89.28
89.27
89.27
89.28
89.17
89.02
88.87
88.83
88.83
88.85
88.93
89.02
89.22
89.38
89.60
89.83
90.05
90.20
90.42
90.52
90.65
90.72
90.78
90.80
90.78
90.75
90.72
90.62
90.53
90.37
90.23
89.97
89.68
89.43
89.13
88.92
88.70
88.48
88.28
88.15
88.02
87.90
87.80
87.68
87.58
87.48
87.40
87.32
87.22
87.13
87.07
87.02
86.93
86.85
86.75
86.65
86.58
86.45
86.33
86.20
86.03
85.87
85.70
85.53
85.45
85.35
85.25
85.12
84.97
84.77
84.50
84.25
84.02
83.78
83.53
83.30
83.05
82.88
82.72
82.55
82.38
82.27
82.15
82.12
82.08
82.02
82.03
82.15
82.20
82.27
82.30
82.43
82.55
82.67
82.60
82.52
82.45
82.40
82.35
82.27
82.18
82.12
82.05
82.02
81.98
81.97
81.85
81.58
81.27
80.92
80.55
80.23
79.97
79.57
79.22
78.83
78.40
78.03
77.63
77.22
76.88
76.57
76.27
76.12
76.02
76.00
75.97
75.98
76.05
76.15
76.27
76.33
76.42
76.55
76.65
76.75
76.87
76.98
77.02
77.12
77.27
77.25
77.23
77.12
76.98
76.83
76.58
76.30
76.07
75.83
75.58
75.37
75.20
75.03
75.07
75.12
75.10
75.05
74.98
74.95
74.90
74.83
74.75
74.63
74.50
74.33
74.67
75.13
75.65
76.18
76.75
77.27
77.73
78.28
78.85
79.45
80.07
80.63
81.25
81.88
82.43
83.02
83.60
84.03
84.48
84.88
85.22
85.52
85.82
86.12
86.42
86.72
87.02
87.23
87.52
87.68
87.97
88.23
88.52
88.75
88.93
89.25
89.58
89.87
90.13
90.45
90.78
91.15
91.55
91.97
92.40
92.83
93.23
93.67
94.10
94.60
95.12
95.62
96.10
96.53
96.97
97.27
97.55
97.80
98.05
98.33
98.15
97.93
97.72
97.45
97.13
96.87
96.67
96.47
96.20
95.98
95.78
95.62
95.42
95.23
95.02
94.80
94.67
94.48
94.28
94.05
93.88
93.65
93.35
93.00
92.62
92.23
91.73
91.25
90.72
90.33
89.85
89.38
88.97
88.58
88.17
87.80
87.43
87.10
86.78
86.38
85.98
85.57
85.12
84.60
84.05
83.50
82.93
82.37
81.83
81.27
80.78
80.33
79.93
79.57
79.20
78.97
78.68
78.40
78.10
77.67
77.18
76.78
76.37
75.98
75.55
75.08
74.87
74.73
74.62
74.45
74.20
73.93
73.68
73.37
73.00
72.80
72.50
72.23
72.00
71.72
71.43
71.25
71.07
70.88
70.72
70.60
70.57
70.55
70.52
70.47
70.42
70.37
70.35
70.32
70.30
70.28
70.25
70.23
70.22
70.20
70.18
70.13
70.10
70.08
70.37
70.63
70.93
71.18
71.43
71.55
71.63
71.65
71.67
71.67
71.73
71.75
71.87
72.03
72.20
72.60
73.18
73.72
74.25
74.80
75.43
76.07
76.42
76.63
76.87
77.08
77.33
77.52
77.60
77.75
77.95
77.95
77.98
78.03
78.00
78.05
78.08
78.08
78.05
78.10
78.15
78.17
78.20
78.23
78.30
78.42
78.50
78.58
78.60
78.63
78.70
78.75
78.78
78.80
78.85
78.98
79.15
79.32
79.47
79.63
79.55
79.48
79.37
79.30
79.18
79.18
79.15
79.18
79.18
79.18
79.12
79.07
78.97
78.83
78.65
78.37
77.95
77.55
77.18
76.85
76.55
76.27
75.98
75.75
75.48
75.22
74.97
74.77
74.67
74.47
74.30
74.17
74.05
73.93
73.87
73.73
73.60
73.47
73.47
73.43
73.40
73.37
73.35
73.38
73.42
73.35
73.32
73.30
73.30
73.28
73.23
73.18
73.13
73.12
73.10
73.05
73.08
73.10
73.13
73.22
73.27
73.35
73.48
73.58
73.72
73.82
73.95
74.08
74.32
74.57
74.78
75.03
75.37
75.70
76.10
76.48
76.88
77.25
77.63
78.00
78.28
78.57
78.85
79.15
79.52
79.90
80.27
80.57
80.83
81.18
81.37
81.52
81.65
81.77
81.87
82.03
82.20
82.35
82.40
82.48
82.58
82.67
82.72
82.73
82.72
82.72
82.72
82.67
82.62
82.58
82.52
82.42
82.45
82.48
82.50
82.55
82.45
82.28
82.12
81.90
81.70
81.45
81.15
81.50
81.85
82.20
82.53
82.87
83.10
83.35
83.63
83.92
84.07
84.27
84.48
84.65
84.85
85.03
85.22
85.40
85.28
85.15
85.03
84.95
84.78
84.63
84.48
84.35
84.25
84.15
84.23
84.37
84.50
84.65
84.82
84.98
85.20
85.40
85.60
85.75
85.87
86.00
86.23
86.42
86.62
86.83
87.05
87.35
87.68
88.00
88.27
88.57
88.75
88.82
88.92
88.98
89.12
89.38
89.68
90.02
90.35
90.72
91.13
90.92
90.70
90.50
90.25
90.00
89.77
89.53
89.30
89.05
88.88
88.68
88.47
88.30
88.05
87.82
87.50
87.15
87.03
86.93
86.83
86.67
86.52
86.35
86.20
86.07
85.93
85.77
85.58
85.37
85.15
84.95
84.78
84.62
84.45
84.33
84.23
84.15
84.08
84.02
83.83
83.67
83.48
83.28
83.08
82.82
82.53
82.28
82.10
81.92
81.75
81.70
81.63
81.57
81.47
81.35
81.22
81.07
80.90
80.70
80.48
80.20
79.87
79.52
79.20
78.85
78.50
78.12
77.73
77.37
77.00
76.65
76.30
75.95
75.67
75.40
75.20
75.00
74.90
74.75
74.58
74.43
74.30
74.18
74.22
74.23
74.23
74.27
74.30
74.33
74.37
74.40
74.38
74.37
74.33
74.28
74.22
74.15
74.10
74.03
73.98
74.03
74.10
74.18
74.32
74.48
74.65
74.80
74.92
75.02
75.08
75.10
75.08
75.07
75.08
75.08
75.07
75.05
75.03
75.03
75.05
75.08
75.10
75.13
75.20
75.32
75.43
75.57
75.73
75.88
76.00
76.10
76.13
76.20
76.28
76.32
76.33
76.37
76.42
76.48
76.57
76.55
76.73
76.95
77.03
77.13
77.23
77.33
77.38
77.42
77.45
77.43
77.50
77.58
77.63
77.68
77.73
77.78
77.80
77.82
77.85
77.78
77.65
77.53
77.38
77.22
77.03
76.85
76.72
76.62
76.57
76.60
76.68
76.78
76.87
76.97
77.05
77.13
77.23
77.33
77.37
77.43
77.63
77.85
78.07
78.25
78.37
78.35
78.33
78.32
78.42
78.52
78.65
78.78
78.88
79.00
79.05
79.10
79.17
79.27
79.33
79.52
79.47
79.37
79.27
79.13
78.98
78.85
78.80
78.78
78.77
78.77
78.68
78.57
78.45
78.37
78.28
78.18
78.10
77.98
77.98
77.93
77.97
77.98
77.97
77.95
77.82
77.68
77.55
77.42
77.25
77.03
76.77
76.48
76.23
75.97
75.70
75.43
75.20
74.98
74.85
74.73
74.57
74.40
74.23
74.13
74.08
74.20
74.33
74.48
74.55
74.62
74.68
74.73
74.77
74.78
74.85
74.85
74.83
74.78
74.75
74.68
74.65
74.65
74.67
74.75
74.88
75.02
75.12
75.22
75.32
75.43
75.57
75.70
75.83
75.90
75.92
75.85
75.80
75.78
75.67
75.58
75.50
75.47
75.47
75.48
75.62
75.75
75.88
75.93
75.97
76.05
76.10
76.13
76.12
76.08
76.05
76.03
76.03
76.05
76.03
76.00
75.92
75.85
75.80
75.68
75.57
75.40
75.23
75.08
74.92
74.82
74.77
74.82
74.85
74.88
74.92
74.98
75.07
75.13
75.15
75.18
75.22
75.25
75.27
75.25
75.23
75.30
75.35
75.42
75.52
75.60
75.70
75.83
76.00
76.18
76.42
76.73
77.03
77.35
77.65
77.98
78.32
78.57
78.82
79.28
80.03
80.78
81.52
82.33
83.17
83.97
84.80
85.65
86.52
87.40
88.30
89.17
89.97
90.72
91.43
92.10
92.83
93.55
94.30
95.07
95.78
96.57
97.33
98.07
98.77
99.40
100.05
100.60
101.25
101.93
102.70
103.48
104.32
105.18
106.12
107.08
108.08
109.12
110.18
111.23
112.32
113.23
114.15
115.05
115.92
116.85
117.77
118.78
119.80
120.80
121.77
122.82
123.90
124.98
126.07
127.12
128.12
129.15
130.13
130.80
131.18
131.53
131.88
132.20
132.48
132.77
133.05
133.35
133.67
134.00
134.32
134.67
135.03
135.43
135.60
135.72
135.80
135.92
135.95
135.95
136.02
136.03
135.90
135.75
135.65
135.50
135.32
135.12
134.85
134.62
134.35
134.12
133.85
133.62
133.37
133.15
132.90
132.62
132.28
131.97
131.60
131.27
130.98
130.70
130.38
130.00
129.65
129.28
128.95
128.67
128.40
128.03
127.67
127.25
126.87
126.52
126.18
125.85
125.52
125.20
124.85
124.53
124.20
123.82
123.45
123.07
122.60
122.13
121.63
121.15
120.67
120.18
119.72
119.23
119.05
118.98
118.90
118.77
118.63
118.53
118.42
118.28
118.27
118.23
118.15
118.13
118.12
118.12
118.10
118.07
118.00
117.92
117.77
117.57
117.38
117.13
116.90
116.63
116.40
116.18
115.98
115.83
115.67
115.48
115.35
115.25
115.10
114.85
114.55
114.22
113.90
113.60
113.28
113.02
112.72
112.42
112.15
111.88
111.65
111.48
111.35
111.20
111.08
111.02
110.97
110.92
110.95
110.95
110.95
110.92
110.93
110.97
110.98
111.02
111.05
111.07
111.10
111.10
111.10
111.12
111.13
111.18
111.23
111.35
111.52
111.67
111.82
111.97
112.13
112.30
112.43
112.55
112.70
112.87
113.02
113.17
113.28
113.40
113.50
113.60
113.68
113.75
113.80
113.88
113.97
114.03
114.12
114.22
114.30
114.38
114.47
114.53
114.57
114.60
114.62
114.63
114.65
114.67
114.68
114.70
114.70
114.68
114.65
114.62
114.57
114.52
114.47
114.42
114.35
114.28
114.18
114.08
113.98
113.88
113.73
113.57
113.40
113.27
113.13
112.98
112.83
112.73
112.68
112.67
112.67
112.63
112.65
112.70
112.73
112.70
112.60
112.53
112.42
112.27
112.27
112.28
112.33
112.42
112.52
112.60
112.65
112.67
112.73
112.65
112.63
112.45
112.23
112.00
111.78
111.53
111.27
110.82
110.38
109.95
109.55
109.15
108.75
108.35
107.95
107.55
107.17
106.82
106.47
106.17
105.87
105.57
105.28
105.02
104.77
104.55
104.28
104.00
103.72
103.43
103.23
103.05
102.88
102.70
102.52
102.45
102.40
102.33
102.23
102.08
101.90
101.77
101.62
101.40
101.20
101.08
101.07
101.08
101.18
101.32
101.27
101.18
101.00
100.83
100.63
100.43
100.27
100.13
99.97
99.92
99.78
99.80
99.85
99.88
99.88
99.92
99.97
100.22
100.45
100.70
100.88
101.05
101.15
101.23
101.30
101.48
101.67
101.87
101.87
101.85
101.83
101.90
102.02
102.13
102.25
102.38
102.32
102.25
102.23
102.20
102.12
102.02
101.88
101.80
101.70
101.45
101.20
100.95
100.67
100.40
100.13
99.85
99.53
99.25
98.98
98.72
98.48
98.27
98.03
97.73
97.48
97.25
97.08
96.87
96.55
96.20
95.80
95.38
94.88
94.35
93.82
93.27
92.72
92.18
91.68
91.18
90.67
90.15
89.67
89.17
88.75
88.37
88.07
87.78
87.52
87.12
86.67
86.20
85.95
85.68
85.40
85.05
84.68
84.32
83.95
83.55
83.38
83.20
82.95
82.70
82.45
82.25
82.05
81.82
81.60
81.47
81.38
81.25
81.12
80.97
80.82
80.73
80.67
80.55
80.43
80.32
80.03
79.73
79.53
79.38
79.22
79.05
78.88
78.83
78.88
78.98
79.17
79.35
79.60
79.90
80.22
80.57
80.92
81.27
81.60
81.92
82.30
82.68
83.02
83.35
83.72
84.05
84.37
84.80
85.17
85.53
85.93
86.33
86.77
87.15
87.58
87.98
88.18
88.43
88.68
88.93
89.23
89.53
89.90
90.27
90.60
90.88
91.17
91.42
91.68
91.88
92.10
92.28
92.52
92.78
93.07
93.27
93.48
93.72
93.95
94.12
94.40
94.62
94.70
94.80
94.88
94.97
95.07
95.05
95.07
95.05
95.00
94.97
94.93
94.88
94.80
94.72
94.62
94.57
94.57
94.58
94.55
94.52
94.55
94.63
94.68
94.80
94.92
94.82
94.80
94.83
94.88
94.87
94.78
94.77
94.75
94.73
94.87
94.97
95.02
95.08
95.10
95.10
95.03
94.97
94.95
94.97
95.02
95.10
95.22
95.37
95.42
95.50
95.58
95.58
95.55
95.48
95.40
95.35
95.25
95.22
95.17
95.17
95.17
95.15
95.20
95.25
95.37
95.45
95.53
95.68
95.85
96.02
96.18
96.35
96.57
96.77
96.97
97.10
97.18
97.32
97.48
97.65
97.78
97.98
98.13
98.22
98.27
98.38
98.50
98.58
98.65
98.77
98.90
99.00
99.08
99.22
99.38
99.50
99.68
99.83
99.98
100.17
100.33
100.47
100.58
100.70
100.80
100.93
100.97
100.95
101.00
101.08
101.28
101.53
101.78
102.08
102.37
102.65
103.00
103.32
103.65
103.93
104.20
104.45
104.63
104.80
104.87
104.92
104.95
104.93
104.93
104.92
104.92
104.93
104.95
104.97
105.00
105.03
105.10
105.10
105.08
105.07
105.03
104.90
104.77
104.48
104.22
103.95
103.65
103.35
103.07
102.80
102.57
102.37
102.20
102.02
101.82
101.67
101.48
101.28
101.05
100.78
100.52
100.28
100.03
99.77
99.48
99.18
98.93
98.72
98.48
98.22
97.82
97.42
97.05
96.62
96.17
95.72
95.17
94.55
94.03
93.55
93.08
92.68
92.28
91.92
91.57
91.32
91.08
90.82
90.52
90.22
89.93
89.67
89.37
89.05
88.72
88.25
87.77
87.30
86.85
86.37
85.90
85.38
84.87
84.50
84.15
83.90
83.67
83.43
83.22
83.00
82.77
82.53
82.27
82.00
81.75
81.48
81.22
80.93
80.57
80.22
79.93
79.63
79.37
79.18
79.10
79.00
78.92
78.82
78.68
78.57
78.42
78.23
78.02
77.83
77.65
77.42
77.25
77.17
76.98
76.78
76.58
76.35
76.10
75.82
75.52
75.12
74.73
74.38
74.07
73.68
73.23
72.73
72.28
71.87
71.47
71.22
70.98
70.77
70.52
70.35
70.22
70.15
70.10
70.08
70.05
69.95
69.83
69.83
69.82
69.80
69.78
69.75
69.72
69.70
69.67
69.65
69.65
69.65
69.77
69.88
69.93
70.10
70.33
70.50
70.53
70.57
70.60
70.67
70.75
70.77
70.88
71.02
71.20
71.37
71.58
71.85
72.12
72.35
72.65
72.78
72.88
72.95
73.07
73.22
73.40
73.65
73.82
73.97
74.10
74.33
74.60
74.88
75.27
75.75
76.22
76.65
77.10
77.57
78.03
78.43
78.78
79.10
79.42
79.72
80.05
80.38
80.72
80.90
81.12
81.37
81.63
81.92
82.15
82.23
82.30
82.40
82.48
82.62
82.73
82.87
83.03
83.13
83.18
83.23
83.33
83.43
83.55
83.65
83.75
83.92
84.00
84.07
84.10
84.18
84.25
84.28
84.32
84.40
84.42
84.58
84.75
84.92
85.05
85.10
85.08
85.05
85.10
85.13
85.13
85.10
85.03
84.95
84.72
84.40
84.08
83.80
83.48
83.18
82.87
82.58
82.28
81.98
81.63
81.27
80.78
80.32
79.87
79.45
79.00
78.50
77.98
77.45
76.90
76.52
76.18
75.72
75.23
74.72
74.27
73.82
73.42
73.25
73.05
72.77
72.43
72.07
71.72
71.37
71.07
70.77
70.47
70.22
69.95
69.67
69.35
69.07
68.78
68.50
68.28
68.08
67.92
67.73
67.45
67.23
67.07
66.88
66.68
66.52
66.35
66.33
66.37
66.42
66.37
66.32
66.30
66.28
66.25
66.20
66.15
66.18
66.23
66.28
66.38
66.63
66.95
67.25
67.53
67.82
68.10
68.43
68.80
69.15
69.55
69.98
70.30
70.70
71.12
71.53
71.90
72.25
72.55
72.60
72.63
72.73
72.88
73.10
73.28
73.50
73.68
73.87
74.17
74.48
74.82
75.17
75.52
75.78
76.05
76.30
76.50
76.68
76.93
77.23
77.67
78.08
78.53
79.00
79.45
79.90
80.37
80.68
81.03
81.35
81.75
82.13
82.50
82.85
83.23
83.55
83.88
84.12
84.42
84.70
84.95
85.07
85.22
85.35
85.58
85.85
86.17
86.57
86.88
87.20
87.57
87.72
87.88
88.03
88.23
88.42
88.60
88.73
88.87
88.98
89.10
89.22
89.32
89.37
89.40
89.38
89.35
89.30
89.17
89.03
88.92
88.75
88.60
88.52
88.47
88.42
88.35
88.45
88.48
88.52
88.50
88.48
88.45
88.43
88.43
88.35
88.28
88.22
88.12
88.05
88.12
88.15
88.18
88.18
88.13
88.10
88.18
88.28
88.35
88.43
88.55
88.65
88.68
88.80
88.83
88.85
88.78
88.62
88.50
88.40
88.17
88.07
88.00
87.95
87.88
87.85
87.78
87.75
87.73
87.73
87.77
87.77
87.75
87.70
87.55
87.37
87.20
87.07
86.95
86.82
86.68
86.60
86.50
86.38
86.40
86.40
86.40
86.27
86.13
85.98
85.87
85.77
85.68
85.60
85.52
85.52
85.53
85.57
85.58
85.57
85.42
85.30
85.18
85.12
85.12
85.13
85.03
84.92
84.78
84.63
84.47
84.32
84.23
84.08
83.97
83.85
83.80
83.77
83.78
83.82
83.90
84.03
84.20
84.37
84.52
84.65
84.82
84.97
85.15
85.37
85.70
86.17
86.45
86.75
87.15
87.48
87.80
87.95
88.03
88.10
88.15
88.20
88.27
88.33
88.23
88.12
88.02
87.88
87.73
87.60
87.48
87.35
87.22
87.03
86.82
86.58
86.30
86.07
85.73
85.67
85.62
85.58
85.60
85.63
85.63
85.63
85.63
85.62
85.60
85.58
85.57
85.53
85.47
85.38
85.25
85.10
84.92
84.70
84.45
84.22
84.00
83.77
83.52
83.27
82.97
82.65
82.33
82.03
81.70
81.32
80.78
80.17
79.77
79.42
79.12
78.93
78.83
78.82
78.85
78.92
79.03
79.17
79.32
79.47
79.60
79.77
79.93
80.10
80.30
80.50
80.67
80.85
81.00
81.18
81.37
81.58
81.85
82.08
82.42
82.53
82.65
82.73
82.77
82.77
82.77
82.75
82.72
82.70
82.67
82.65
82.62
82.63
82.65
82.65
82.67
82.70
82.72
82.72
82.67
82.55
82.48
82.43
82.45
82.38
82.38
82.47
82.55
82.65
82.72
82.75
82.78
82.82
82.85
82.88
82.85
82.83
82.82
82.82
82.82
82.77
82.65
82.48
82.28
82.08
81.88
81.68
81.45
81.32
81.22
81.13
81.08
81.17
81.28
81.38
81.58
81.77
81.90
82.00
82.13
82.25
82.37
82.48
82.53
82.60
82.78
82.97
83.13
83.27
83.42
83.43
83.47
83.47
83.50
83.57
83.62
83.67
83.75
83.87
84.03
84.25
84.43
84.55
84.57
84.53
84.47
84.32
84.13
84.02
83.92
83.82
83.75
83.65
83.50
83.40
83.33
83.17
82.90
82.85
82.80
82.77
82.77
82.80
82.83
82.87
82.85
82.80
82.80
82.73
82.65
82.55
82.42
82.17
81.92
81.68
81.35
81.00
80.68
80.27
79.78
79.37
78.93
78.47
78.15
77.83
77.47
77.22
77.03
76.93
76.85
76.90
76.95
77.00
77.03
77.02
77.00
76.93
76.83
76.72
76.58
76.45
76.33
76.27
76.27
76.42
76.60
76.82
77.08
77.28
77.50
77.73
77.93
78.15
78.42
78.62
78.82
79.10
79.42
79.57
79.72
79.85
79.97
80.07
80.18
80.38
80.65
80.95
81.23
81.53
81.82
82.13
82.47
82.77
83.03
83.30
83.55
83.82
84.08
84.50
84.95
85.40
85.83
86.12
86.28
86.45
86.53
86.50
86.40
86.23
86.03
85.80
85.57
85.33
85.13
84.97
84.83
84.73
84.67
84.65
84.63
84.58
84.53
84.45
84.35
84.25
84.17
84.12
83.95
83.82
83.68
83.57
83.45
83.30
83.13
82.98
82.83
82.67
82.48
82.32
82.17
82.05
81.93
81.85
81.75
81.55
81.33
81.12
80.92
80.72
80.57
80.40
80.25
80.13
80.03
79.95
79.92
79.88
79.85
79.77
79.70
79.57
79.45
79.53
79.65
79.77
79.90
80.07
80.27
80.48
80.70
80.97
81.25
81.53
81.78
82.07
82.33
82.60
82.87
83.10
83.35
83.62
83.87
84.10
84.32
84.50
84.63
84.73
84.97
85.18
85.38
85.58
85.80
86.05
86.28
86.50
86.75
87.00
87.25
87.48
87.68
87.88
88.07
88.23
88.43
88.67
88.92
89.17
89.40
89.58
89.70
89.80
89.88
89.93
89.98
90.02
90.03
90.02
89.93
89.73
89.55
89.42
89.32
89.23
89.17
89.10
89.07
89.05
89.05
89.05
89.08
89.12
89.18
89.25
89.33
89.38
89.40
89.42
89.43
89.43
89.45
89.45
89.47
89.55
89.67
89.80
89.97
90.12
90.25
90.32
90.42
90.50
90.57
90.63
90.72
90.73
90.72
90.63
90.55
90.50
90.47
90.40
90.35
90.30
90.22
90.13
90.07
89.88
89.77
89.68
89.62
89.55
89.48
89.47
89.50
89.53
89.60
89.65
89.72
89.83
89.90
89.95
89.97
89.93
89.98
90.05
90.05
90.03
90.00
89.98
89.87
89.75
89.58
89.42
89.25
89.07
88.92
88.75
88.58
88.45
88.32
88.22
88.12
87.97
87.77
87.55
87.32
87.10
86.87
86.70
86.50
86.33
86.18
86.05
85.90
85.83
85.78
85.82
85.85
85.85
85.83
85.85
85.87
85.88
85.90
85.92
85.92
86.02
86.02
85.98
85.97
85.95
85.93
85.90
85.83
85.78
85.72
85.70
85.73
85.82
85.95
86.03
86.13
86.28
86.32
86.33
86.38
86.42
86.45
86.47
86.57
86.65
86.75
86.85
86.95
87.08
87.22
87.37
87.50
87.62
87.70
87.77
87.83
87.90
88.00
88.12
88.23
88.35
88.45
88.53
88.60
88.63
88.70
88.75
88.83
88.93
89.03
89.25
89.45
89.62
89.78
89.90
90.02
90.10
90.13
90.17
90.18
90.18
90.18
90.20
90.20
90.20
90.20
90.20
90.20
90.20
90.18
90.17
90.12
90.15
90.15
90.20
90.27
90.33
90.42
90.50
90.57
90.62
90.67
90.75
90.82
90.92
91.02
91.12
91.25
91.38
91.52
91.63
91.72
91.73
91.75
91.77
91.75
91.73
91.72
91.70
91.65
91.60
91.57
91.53
91.52
91.53
91.52
91.50
91.47
91.40
91.32
91.12
90.92
90.75
90.60
90.50
90.40
90.35
90.35
90.35
90.37
90.35
90.38
90.42
90.48
90.57
90.65
90.73
90.82
90.87
90.90
90.93
90.97
90.93
90.92
90.87
90.80
90.72
90.63
90.53
90.42
90.28
90.13
89.95
89.77
89.55
89.35
89.17
88.95
88.73
88.53
88.35
88.20
88.13
88.07
88.02
88.02
88.03
88.05
88.05
88.08
88.10
88.13
88.18
88.23
88.25
88.25
88.12
87.98
87.87
87.75
87.65
87.57
87.48
87.40
87.33
87.28
87.22
87.15
87.07
86.98
86.93
86.85
86.77
86.67
86.58
86.45
86.32
86.10
85.98
85.83
85.68
85.52
85.50
85.45
85.37
85.32
85.28
85.23
85.22
85.27
85.38
85.48
85.55
85.55
85.58
85.55
85.38
85.28
85.18
85.08
84.98
84.87
84.70
84.57
84.43
84.30
84.15
83.97
83.80
83.72
83.58
83.40
83.20
82.97
82.77
82.55
82.48
82.37
82.22
82.10
81.98
81.88
81.78
81.78
81.72
81.67
81.62
81.58
81.57
81.57
81.62
81.68
81.80
81.92
82.02
82.17
82.30
82.52
82.65
82.85
83.08
83.27
83.28
83.32
83.37
83.37
83.35
83.37
83.40
83.37
83.27
83.20
83.17
83.22
83.23
83.28
83.47
83.62
83.78
83.95
84.12
84.30
84.50
84.67
84.83
84.98
85.15
85.33
85.50
85.57
85.68
85.82
85.93
86.07
86.18
86.38
86.57
86.82
87.08
87.33
87.58
87.82
88.03
88.13
88.27
88.37
88.48
88.62
88.73
88.88
89.02
89.18
89.33
89.43
89.52
89.60
89.67
89.68
89.72
89.70
89.70
89.80
89.92
90.00
90.08
90.17
90.17
90.10
89.93
89.72
89.53
89.35
89.15
88.90
88.62
88.47
88.18
87.85
87.52
87.32
87.07
86.62
86.22
85.77
85.30
84.85
84.43
84.42
84.42
84.42
84.38
84.35
84.28
84.23
84.18
84.07
84.10
84.12
84.12
84.07
84.00
83.92
83.83
83.72
83.58
83.45
83.28
83.08
82.90
82.65
82.38
82.07
81.70
81.35
81.00
80.67
80.35
80.10
79.83
79.60
79.30
78.97
78.60
78.28
77.97
77.67
77.45
77.30
77.25
77.30
77.37
77.42
77.48
77.63
77.80
77.87
78.08
78.32
78.58
78.72
78.92
79.32
79.68
80.08
80.47
80.87
81.22
81.18
81.15
81.13
81.17
81.23
81.37
81.52
81.65
81.80
81.80
81.80
81.83
81.90
81.97
82.05
82.12
82.22
82.23
82.32
82.30
82.33
82.35
82.38
82.43
82.52
82.57
82.60
82.65
82.68
82.77
82.82
82.88
82.98
83.10
83.23
83.35
83.43
83.48
83.53
83.55
83.60
83.65
83.70
83.78
83.92
84.05
84.18
84.37
84.52
84.62
84.70
84.73
84.73
84.72
84.68
84.65
84.63
84.65
84.63
84.58
84.52
84.43
84.35
84.28
84.22
84.13
84.03
83.95
83.87
83.77
83.72
83.63
83.55
83.43
83.35
83.28
83.27
83.38
83.47
83.67
83.82
83.98
84.17
84.32
84.47
84.65
84.85
85.02
85.15
85.20
85.25
85.25
85.12
85.02
84.93
84.88
84.83
84.85
84.90
85.02
85.08
85.15
85.40
85.68
85.85
86.00
86.10
86.17
86.23
86.32
86.40
86.42
86.50
86.58
86.67
86.73
86.80
86.85
86.90
86.93
86.97
87.00
87.03
87.12
87.15
87.07
86.98
86.92
86.85
86.80
86.68
86.58
86.48
86.45
86.37
86.28
86.18
85.98
85.77
85.58
85.35
85.12
84.85
84.67
84.53
84.42
84.23
84.05
83.97
83.90
83.83
83.77
83.82
83.92
84.00
84.10
84.23
84.37
84.48
84.57
84.65
84.68
84.48
84.18
83.97
83.75
83.55
83.35
83.17
83.05
82.95
82.93
82.92
82.90
82.90
82.92
82.95
82.97
82.97
83.03
83.12
83.22
83.37
83.43
83.55
83.78
84.02
84.23
84.50
84.75
84.98
85.22
85.43
85.60
85.87
86.28
86.68
87.28
87.78
88.30
88.87
89.38
89.95
89.97
89.92
89.85
89.85
89.87
89.80
89.67
89.47
89.32
89.17
88.90
88.65
88.35
88.15
87.82
87.55
87.32
87.08
86.85
86.65
86.47
86.30
86.17
86.05
85.88
85.75
85.57
85.38
85.18
84.98
84.73
84.50
84.27
84.02
83.78
83.58
83.37
83.15
82.93
82.67
82.40
82.13
81.87
81.58
81.33
81.07
80.83
80.65
80.48
80.33
80.18
79.93
79.52
79.10
78.53
78.07
77.58
77.13
76.75
76.33
76.40
76.42
76.45
76.47
76.47
76.48
76.58
76.75
76.90
77.00
77.12
77.22
77.35
77.35
77.45
77.45
77.42
77.42
77.45
77.48
77.53
77.57
77.62
77.67
77.80
77.88
77.92
77.95
77.97
77.92
77.82
77.72
77.58
77.42
77.25
77.07
76.98
76.87
76.73
76.62
76.55
76.48
76.37
76.22
76.02
75.78
75.57
75.48
75.40
75.32
75.27
75.25
75.27
75.38
75.53
75.63
75.68
75.68
75.63
75.57
75.50
75.45
75.30
75.22
75.17
75.13
75.15
75.18
75.25
75.37
75.50
75.60
75.68
75.78
75.90
76.03
76.15
76.23
76.30
76.37
76.43
76.48
76.50
76.55
76.58
76.65
76.75
76.83
76.90
76.98
77.18
77.33
77.47
77.65
77.85
78.07
78.22
78.37
78.53
78.72
78.95
79.15
79.38
79.65
79.88
80.00
80.23
80.33
80.42
80.50
80.55
80.57
80.57
80.45
80.27
80.13
80.03
79.98
79.98
80.02
80.07
80.10
80.20
80.25
80.27
80.25
80.17
80.05
79.93
79.80
79.67
79.58
79.53
79.47
79.37
79.25
79.10
78.97
78.83
78.67
78.48
78.33
78.20
77.97
77.85
77.72
77.58
77.43
77.32
77.15
77.00
76.88
76.83
76.75
76.63
76.52
76.42
76.33
76.25
76.13
75.92
75.75
75.65
75.63
75.65
75.82
75.85
75.90
76.02
76.20
76.40
76.62
76.83
77.07
77.32
77.55
77.73
77.90
78.03
78.17
78.33
78.53
78.77
79.00
79.25
79.50
79.75
80.00
80.17
80.33
80.48
80.62
80.85
81.08
81.43
81.77
82.15
82.50
82.85
83.23
83.67
84.08
84.60
85.20
85.62
86.05
86.52
87.03
87.57
88.13
88.65
89.18
89.70
90.23
90.77
91.30
91.80
92.33
92.88
93.40
93.95
94.48
94.95
95.33
95.90
96.43
96.95
97.43
97.88
98.25
98.65
99.08
99.52
99.93
100.38
100.85
101.33
101.80
102.25
102.68
103.10
103.52
103.97
104.42
104.87
105.35
105.87
106.40
106.95
107.47
107.98
108.48
108.90
109.33
109.60
109.92
110.27
110.63
111.02
111.42
111.78
112.10
112.30
112.47
112.67
112.87
113.03
113.27
113.43
113.60
113.78
113.95
114.10
114.27
114.45
114.63
114.87
115.07
115.28
115.52
115.73
115.95
116.20
116.48
116.57
116.63
116.53
116.43
116.18
116.00
115.85
115.67
115.47
115.22
115.00
114.78
114.58
114.40
114.25
114.10
113.85
113.65
113.40
113.07
112.88
112.65
112.40
112.15
111.93
111.75
111.60
111.47
111.30
111.13
111.10
111.02
110.93
110.83
110.72
110.58
110.48
110.45
110.45
110.45
110.47
110.52
110.55
110.53
110.55
110.55
110.55
110.57
110.47
110.42
110.37
110.25
110.08
109.93
109.77
109.57
109.33
109.08
108.82
108.53
108.30
108.08
108.02
107.95
108.00
108.00
107.93
107.83
107.77
107.77
107.73
107.68
107.63
107.58
107.57
107.53
107.57
107.55
107.53
107.62
107.42
107.28
107.17
107.07
106.98
106.93
106.88
106.83
106.77
106.68
106.50
106.30
105.97
105.68
105.40
105.07
104.68
104.28
103.87
103.45
103.00
102.47
101.95
101.38
100.87
100.37
99.87
99.45
99.20
98.85
98.48
98.20
97.97
97.72
97.47
97.27
97.13
97.07
97.00
96.93
96.83
96.75
96.68
96.57
96.45
96.35
96.25
96.18
96.10
96.02
95.92
95.83
95.73
95.62
95.43
95.13
94.85
94.62
94.40
94.18
94.10
94.00
93.93
93.87
93.82
93.75
93.65
93.50
93.50
93.53
93.60
93.72
94.23
94.68
95.18
95.68
96.15
96.83
97.52
97.93
98.35
98.83
99.23
99.63
100.00
100.38
100.78
101.08
101.33
101.52
101.70
101.85
101.95
102.07
102.13
102.17
102.17
102.12
102.12
102.12
102.12
102.10
102.10
102.13
102.13
102.10
102.02
101.93
101.85
101.75
101.65
101.55
101.47
101.42
101.38
101.48
101.57
101.55
101.53
101.53
101.53
101.50
101.42
101.30
101.18
101.00
100.83
100.72
100.48
100.23
99.98
99.70
99.10
98.50
97.93
97.42
96.93
96.22
95.50
95.03
94.58
94.02
93.57
93.13
92.70
92.25
91.77
91.28
90.82
90.45
90.10
89.72
89.30
88.88
88.48
88.10
87.70
87.28
86.80
86.33
85.85
85.40
84.90
84.42
84.02
83.57
83.20
82.83
82.72
82.55
82.37
82.27
82.13
82.00
81.92
81.83
81.83
81.88
81.95
81.98
81.98
82.02
82.05
82.12
82.18
82.28
82.42
82.57
82.73
82.93
83.15
83.40
83.68
84.00
84.27
84.58
84.88
85.22
85.52
85.83
86.18
86.58
86.92
87.23
87.53
87.87
88.25
88.67
89.13
89.55
89.97
90.42
90.83
91.25
91.75
92.27
92.80
93.32
93.87
94.42
94.98
95.45
95.95
96.50
96.98
97.52
98.02
98.52
98.78
99.12
99.48
99.73
100.03
100.32
100.58
100.85
101.05
101.27
101.47
101.68
101.90
102.10
102.32
102.53
102.72
102.93
103.13
103.32
103.52
103.67
103.83
103.95
104.03
104.12
104.17
104.15
104.13
104.10
104.08
104.05
104.00
104.00
104.03
104.07
104.12
104.13
104.08
103.98
103.80
103.60
103.38
103.18
103.08
102.97
102.78
102.60
102.38
102.17
101.87
101.55
101.28
101.08
100.88
100.63
100.45
100.30
100.17
100.07
99.95
99.85
99.77
99.77
99.72
99.68
99.63
99.57
99.48
99.37
99.25
99.03
98.88
98.75
98.62
98.48
98.35
98.20
98.05
97.88
97.67
97.48
97.28
97.13
97.02
96.88
96.75
96.63
96.53
96.37
96.20
96.05
95.90
95.75
95.62
95.48
95.25
95.07
94.92
94.82
94.72
94.57
94.47
94.33
94.18
94.05
93.93
93.82
93.78
93.75
93.78
93.83
93.87
93.93
94.02
94.12
94.17
94.20
94.22
94.27
94.32
94.37
94.38
94.33
94.32
94.32
94.30
94.30
94.33
94.45
94.55
94.77
94.95
95.12
95.27
95.42
95.55
95.68
95.80
95.92
96.03
96.12
96.18
96.25
96.30
96.37
96.38
96.40
96.40
96.47
96.53
96.60
96.68
96.78
96.90
97.05
97.28
97.52
97.77
97.98
98.22
98.57
98.87
99.17
99.43
99.68
99.90
100.13
100.33
100.57
100.82
101.10
101.38
101.65
101.90
102.08
102.25
102.42
102.53
102.55
102.57
102.50
102.43
102.37
102.28
102.13
101.98
101.88
101.78
101.63
101.52
101.40
101.33
101.28
101.25
101.17
101.13
101.10
101.10
101.07
101.02
100.98
100.92
100.87
100.77
100.68
100.65
100.62
100.53
100.43
100.32
100.25
100.20
100.13
100.02
99.92
99.80
99.67
99.42
99.17
98.85
98.53
98.22
97.92
97.62
97.37
97.17
96.95
96.70
96.43
96.15
95.80
95.42
94.95
94.52
94.10
93.73
93.40
93.10
92.80
92.58
92.47
92.43
92.37
92.33
92.35
92.40
92.52
92.60
92.67
92.72
92.78
92.80
92.80
92.78
92.82
92.78
92.75
92.68
92.65
92.65
92.65
92.70
92.73
92.77
92.78
92.80
92.82
92.90
93.00
93.13
93.25
93.35
93.43
93.55
93.60
93.63
93.58
93.63
93.72
93.90
93.97
93.85
93.78
93.70
93.58
93.42
93.32
93.18
92.85
92.57
92.42
92.53
92.72
92.92
93.25
93.58
93.88
94.20
94.57
94.87
95.12
95.30
95.52
95.70
95.85
95.98
95.98
96.02
96.10
96.18
96.25
96.33
96.43
96.55
96.65
96.77
96.88
97.00
97.15
97.30
97.45
97.62
97.80
98.00
98.20
98.38
98.50
98.65
98.78
98.90
98.97
99.02
99.08
99.13
99.20
99.33
99.53
99.77
99.98
100.17
100.42
100.87
101.27
101.73
102.18
102.65
103.07
103.60
104.32
104.97
105.48
105.75
106.03
106.27
106.43
106.55
106.68
106.83
106.98
107.07
107.13
107.22
107.28
107.35
107.43
107.58
107.62
107.67
107.70
107.75
107.82
107.88
107.95
108.00
108.07
108.18
108.28
108.43
108.57
108.75
108.93
109.10
109.02
108.98
108.95
108.95
108.98
109.00
109.03
109.03
109.05
109.05
109.05
109.05
109.07
109.07
109.07
109.03
108.98
108.88
108.77
108.67
108.60
108.50
108.40
108.30
108.20
108.03
107.88
107.75
107.63
107.52
107.45
107.38
107.22
107.07
106.93
106.73
106.52
106.35
106.28
106.20
106.07
105.97
105.87
105.67
105.57
105.42
105.23
105.02
104.83
104.62
104.30
103.98
103.48
102.97
102.43
101.87
101.30
100.67
100.03
99.37
98.88
98.37
97.85
97.37
96.93
96.50
96.08
95.70
95.33
94.97
94.60
94.25
93.88
93.63
93.30
92.95
92.55
92.17
91.83
91.65
91.37
91.03
90.70
90.35
89.98
89.63
89.28
88.95
88.58
88.17
87.67
87.13
86.65
86.15
85.62
85.07
84.53
84.08
83.55
83.03
82.60
82.13
81.68
81.20
80.68
80.20
79.78
79.37
78.82
78.28
77.80
77.28
77.00
76.68
76.50
76.28
75.97
75.68
75.38
75.03
74.75
74.48
74.25
73.88
73.57
73.23
72.87
72.90
72.90
72.92
72.92
72.90
72.90
72.78
72.75
72.72
72.75
72.83
72.95
72.88
72.88
72.93
73.00
73.07
73.08
73.10
73.17
73.23
73.33
73.48
73.63
73.80
73.95
74.08
74.20
74.37
74.52
74.58
74.67
74.75
74.82
74.92
75.00
75.15
75.33
75.45
75.48
75.55
75.67
75.77
75.87
75.98
76.02
76.05
76.00
75.95
76.00
76.03
76.15
76.35
76.55
76.80
77.02
77.32
77.52
77.62
77.72
77.42
77.27
77.13
77.00
76.83
76.63
76.42
76.22
76.05
75.87
75.67
75.38
75.15
74.92
74.68
74.43
74.18
73.90
73.63
73.27
72.88
72.48
72.08
71.70
71.32
71.02
70.75
70.48
70.27
70.07
69.88
69.77
69.58
69.37
69.17
68.97
68.77
68.55
68.37
68.20
68.03
67.87
67.72
67.55
67.47
67.28
67.15
67.02
66.88
66.75
66.62
66.43
66.25
65.97
65.65
65.32
65.00
64.77
64.65
64.52
64.23
64.15
64.03
64.02
64.00
64.00
64.02
64.03
64.00
63.92
63.83
63.83
63.80
63.80
63.88
63.97
64.02
64.15
64.28
64.40
64.50
64.62
64.73
64.83
64.97
65.30
65.62
65.93
66.20
66.48
66.78
67.00
67.27
67.62
67.95
68.28
68.62
69.00
69.40
69.83
70.25
70.68
71.10
71.57
71.97
72.48
73.00
73.50
74.00
74.48
74.97
75.43
75.80
76.30
76.80
77.32
77.85
78.33
78.78
79.35
80.07
80.47
80.87
81.18
81.53
81.93
82.18
82.43
82.73
83.12
83.50
83.85
84.20
84.50
84.70
84.93
85.20
85.45
85.65
85.92
86.22
86.50
86.78
87.00
87.20
87.15
87.12
87.08
87.08
87.03
86.95
86.83
86.72
86.55
86.37
86.18
86.02
85.87
85.73
85.58
85.45
85.30
85.15
85.02
84.90
84.80
84.68
84.58
84.50
84.43
84.30
84.17
84.07
83.93
83.75
83.52
83.30
83.07
82.85
82.57
82.32
82.05
81.82
81.55
81.28
80.98
80.83
80.67
80.50
80.33
80.10
79.87
79.63
79.43
79.27
79.08
78.92
78.78
78.67
78.53
78.42
78.33
78.27
78.28
78.30
78.30
78.37
78.38
78.38
78.38
78.40
78.40
78.45
78.50
78.53
78.57
78.60
78.67
78.77
78.90
79.02
79.13
79.32
79.50
79.67
79.80
79.93
80.03
80.12
80.20
80.42
80.58
80.82
81.03
81.28
81.40
81.47
81.53
81.63
81.70
81.73
81.75
81.77
81.73
81.70
81.55
81.45
81.38
81.33
81.25
81.22
81.22
81.20
81.17
81.08
81.02
80.93
80.80
80.70
80.57
80.20
79.85
79.32
78.77
78.25
77.92
77.47
77.05
76.92
76.82
76.82
76.88
76.92
76.97
77.03
77.12
77.20
77.23
77.20
77.13
77.05
76.98
76.85
76.70
76.53
76.37
76.13
75.90
75.67
75.38
75.03
74.73
74.45
74.18
73.85
73.72
73.70
73.65
73.57
73.48
73.40
73.42
73.40
73.47
73.53
73.75
73.93
74.10
74.25
74.37
74.48
74.58
74.68
74.77
74.88
74.98
75.10
75.27
75.38
75.57
75.95
76.30
76.82
77.35
77.85
78.18
78.57
78.98
79.12
79.25
79.27
79.33
79.38
79.40
79.37
79.30
79.18
79.08
79.05
79.02
78.95
78.87
78.75
78.63
78.53
78.58
78.72
78.93
79.17
79.40
79.62
79.85
80.05
80.20
80.42
80.62
80.68
80.82
81.02
81.25
81.47
81.58
81.72
81.83
81.95
82.02
82.03
82.03
82.03
82.07
82.10
82.12
82.13
82.15
82.17
82.18
82.20
82.20
82.22
82.22
82.20
82.17
82.13
82.08
82.03
81.98
81.95
81.93
81.93
81.93
81.93
81.87
81.78
81.68
81.60
81.52
81.45
81.37
81.23
81.12
81.05
81.00
81.02
81.03
81.05
80.92
80.75
80.52
80.32
80.17
80.05
79.93
79.83
79.77
79.70
79.62
79.53
79.43
79.28
79.17
79.05
78.95
78.85
78.75
78.63
78.52
78.43
78.33
78.22
78.08
77.97
77.87
77.78
77.72
77.65
77.58
77.52
77.45
77.38
77.32
77.27
77.23
77.20
77.20
77.20
77.20
77.18
77.18
77.18
77.20
77.22
77.27
77.33
77.45
77.55
77.65
77.77
77.88
78.00
78.12
78.18
78.30
78.40
78.50
78.60
78.73
78.83
78.90
78.92
78.92
78.88
78.80
78.72
78.65
78.62
78.62
78.63
78.65
78.65
78.60
78.55
78.50
78.45
78.38
78.33
78.30
78.32
78.35
78.40
78.50
78.63
78.78
78.93
79.07
79.18
79.28
79.43
79.53
79.63
79.72
79.80
79.85
79.88
79.85
79.78
79.73
79.70
79.63
79.57
79.68
79.72
79.65
79.55
79.42
79.33
79.25
79.17
79.08
78.98
78.87
78.80
78.68
78.57
78.43
78.32
78.18
78.08
78.08
78.12
78.17
78.27
78.38
78.50
78.57
78.57
78.55
78.55
78.53
78.50
78.47
78.45
78.45
78.45
78.43
78.42
78.40
78.33
78.27
78.18
78.07
77.90
77.73
77.57
77.42
77.32
77.23
77.12
77.03
76.97
76.88
76.80
76.73
76.68
76.70
76.75
76.78
76.83
76.92
76.98
76.83
76.78
76.80
76.87
76.97
77.08
77.23
77.40
77.62
77.85
78.08
78.30
78.52
78.73
79.00
79.28
79.57
79.92
80.20
80.48
80.77
81.10
81.42
81.70
81.98
82.35
82.47
82.55
82.65
82.75
82.85
82.97
83.05
83.17
83.35
83.55
83.75
83.95
84.15
84.30
84.35
84.45
84.53
84.60
84.67
84.70
84.75
84.78
84.83
84.88
84.97
85.05
85.17
85.27
85.35
85.42
85.48
85.52
85.52
85.52
85.53
85.53
85.52
85.48
85.42
85.32
85.20
85.07
84.87
84.67
84.47
84.28
84.12
83.95
83.78
83.58
83.37
83.08
82.78
82.47
82.15
81.75
81.33
80.95
80.62
80.27
80.18
80.13
80.10
80.08
80.07
80.03
80.02
79.95
79.85
79.73
79.62
79.55
79.47
79.43
79.50
79.52
79.53
79.55
79.57
79.57
79.53
79.50
79.52
79.48
79.43
79.40
79.35
79.33
79.32
79.33
79.33
79.32
79.30
79.30
79.28
79.25
79.23
79.22
79.22
79.23
79.25
79.25
79.27
79.28
79.30
79.32
79.32
79.32
79.28
79.25
79.23
79.22
79.22
79.20
79.20
79.18
79.23
79.30
79.35
79.35
79.33
79.30
79.27
79.20
79.17
79.13
79.08
79.03
78.98
78.93
78.90
78.83
78.80
78.75
78.67
78.62
78.57
78.55
78.53
78.53
78.55
78.55
78.50
78.60
78.72
78.78
78.83
78.85
78.87
78.90
78.93
78.98
79.02
79.07
79.13
79.27
79.38
79.48
79.58
79.68
79.73
79.83
79.93
80.02
80.10
80.28
80.42
80.55
80.68
80.78
80.78
80.78
80.78
80.77
80.72
80.62
80.53
80.43
80.33
80.23
80.18
80.13
80.07
80.03
79.98
79.93
79.90
79.88
79.88
79.85
79.80
79.73
79.65
79.58
79.55
79.50
79.40
79.27
79.10
78.88
78.70
78.50
78.15
77.68
77.22
76.77
76.30
75.88
75.47
75.03
74.65
74.27
73.90
73.48
73.08
72.63
72.20
71.78
71.35
70.90
70.50
70.03
69.53
69.08
68.63
68.05
67.55
67.07
66.60
66.18
65.88
65.57
65.25
65.00
64.83
64.73
64.60
64.47
64.33
64.27
64.15
64.05
63.95
63.88
63.82
63.67
63.55
63.43
63.32
63.37
63.42
63.48
63.53
63.60
63.67
63.70
63.77
63.80
63.85
63.93
63.82
63.78
63.90
64.03
64.12
64.23
64.33
64.40
64.40
64.43
64.43
64.40
64.43
64.47
64.50
64.50
64.50
64.47
64.58
64.73
64.90
65.07
65.42
65.73
66.07
66.45
66.80
67.15
67.50
67.83
68.17
68.50
68.83
69.12
69.32
69.52
69.72
69.90
70.10
70.25
70.40
70.53
70.68
70.83
70.97
71.22
71.43
71.67
71.88
71.95
72.02
72.05
72.08
72.08
72.08
72.08
72.10
72.17
72.23
72.32
72.58
72.82
73.08
73.33
73.63
73.90
74.22
74.53
74.90
75.22
75.53
75.90
76.22
76.53
76.87
77.25
77.60
77.98
78.20
78.40
78.58
78.82
78.78
78.77
78.73
78.70
78.67
78.62
78.55
78.48
78.43
78.40
78.38
78.33
78.30
78.27
78.18
78.15
78.08
78.03
77.90
77.77
77.63
77.40
77.12
76.87
76.60
76.37
76.17
75.97
75.80
75.68
75.60
75.53
75.50
75.50
75.50
75.50
75.52
75.50
75.48
75.47
75.43
75.42
75.40
75.40
75.38
75.37
75.37
75.37
75.38
75.38
75.37
75.38
75.33
75.27
75.22
75.18
75.20
75.25
75.30
75.32
75.43
75.58
75.75
75.88
76.02
76.12
76.18
76.30
76.38
76.40
76.40
76.47
76.53
76.58
76.67
76.70
76.73
76.83
76.97
77.08
77.18
77.37
77.60
77.75
77.93
78.07
78.15
78.25
78.32
78.27
78.23
78.23
78.22
78.22
78.20
78.23
78.28
78.37
78.47
78.53
78.58
78.62
78.65
78.65
78.70
78.75
78.80
78.85
78.90
79.02
79.13
79.23
79.35
79.48
79.65
79.82
79.95
80.02
80.07
80.13
80.18
80.18
80.13
80.10
80.07
80.08
80.12
80.10
80.07
80.08
80.08
80.02
79.95
79.90
79.87
79.90
80.08
80.18
80.28
80.38
80.45
80.50
80.52
80.53
80.55
80.55
80.55
80.53
80.58
80.73
80.80
80.87
80.98
81.12
81.23
81.27
81.20
81.00
80.77
80.58
80.35
80.17
80.37
80.57
80.67
80.72
80.72
80.65
80.65
80.72
80.77
80.85
80.87
80.83
80.82
80.78
80.78
80.83
80.85
80.75
80.72
80.72
80.75
80.78
80.82
80.87
80.93
80.97
81.03
81.15
81.27
81.45
81.58
81.78
82.02
82.20
82.27
82.32
82.40
82.50
82.57
82.62
82.75
82.90
83.03
83.17
83.33
83.53
83.68
83.85
84.05
84.22
84.32
84.40
84.52
84.67
84.80
85.13
85.45
85.73
86.07
86.35
86.27
86.23
86.27
86.35
86.50
86.73
86.87
86.85
86.83
86.78
86.75
86.77
86.72
86.67
86.65
86.62
86.63
86.82
86.95
87.07
87.17
87.35
87.55
87.70
87.78
87.90
87.88
87.65
87.45
87.23
87.07
86.85
86.60
86.33
86.03
85.72
85.37
85.02
84.75
84.52
84.13
83.72
83.43
83.18
82.92
82.60
82.27
81.77
81.33
80.87
80.42
79.98
79.57
79.15
78.83
78.43
78.03
77.62
77.22
76.83
76.43
75.97
75.65
75.38
75.12
74.87
74.67
74.48
74.32
74.13
74.00
73.83
73.70
73.55
73.33
73.10
72.85
72.55
72.25
71.92
71.60
71.20
70.78
70.40
70.12
69.87
69.75
69.83
69.88
69.93
69.97
69.98
69.98
69.98
69.97
69.98
70.03
70.08
70.17
70.23
70.45
70.73
70.92
71.08
71.27
71.47
71.63
71.92
72.12
72.32
72.47
72.57
72.63
72.73
72.85
73.05
73.28
73.57
73.85
74.13
74.42
74.68
74.78
74.82
74.78
74.68
74.55
74.42
74.30
74.25
74.28
74.35
74.43
74.55
74.68
74.83
74.93
75.02
75.08
75.12
75.15
75.18
75.25
75.32
75.35
75.37
75.38
75.38
75.40
75.45
75.57
75.68
75.83
76.03
76.30
76.58
76.92
77.25
77.58
77.92
78.20
78.42
78.58
78.73
78.83
79.00
79.18
79.40
79.65
79.98
80.33
80.70
81.08
81.43
81.73
81.92
82.13
82.32
82.43
82.53
