1531990494.000000
4.000000
0.000000
0.650838
0.709772
0.790753
0.588327
0.580640
0.579359
0.575515
0.572953
0.571672
0.569109
0.567828
0.565266
0.562703
0.560141
0.558860
0.556298
0.555016
0.553735
0.551173
0.551173
0.548611
0.546048
0.544767
0.540923
0.544767
0.542205
0.539642
0.542205
0.537080
0.537080
0.537080
0.535799
0.538361
0.534518
0.534518
0.533236
0.530674
0.529393
0.525549
0.525549
0.521706
0.522987
0.519143
0.519143
0.519143
0.515300
0.516581
0.515300
0.514019
0.515300
0.512738
0.511456
0.512738
0.512738
0.510175
0.510175
0.510175
0.508894
0.507613
0.505050
0.506332
0.503769
0.502488
0.501207
0.499926
0.499926
0.498645
0.494801
0.497363
0.494801
0.494801
0.492239
0.487114
0.487114
0.485833
0.487114
0.484552
0.481989
0.480708
0.480708
0.479427
0.474302
0.475583
0.475583
0.473021
0.473021
0.470459
0.469178
0.467896
0.466615
0.467896
0.464053
0.462772
0.461490
0.462772
0.458928
0.391026
0.457647
0.456366
0.453803
0.452522
0.452522
0.452522
0.451241
0.448679
0.449960
0.451241
0.451241
0.449960
0.448679
0.449960
0.447398
0.446116
0.444835
0.446116
0.442273
0.439710
0.438429
0.438429
0.440992
0.437148
0.433305
0.433305
0.433305
0.437148
0.433305
0.430742
0.429461
0.429461
0.428180
0.430742
0.426899
0.426899
0.425618
0.425618
0.421774
0.420493
0.420493
0.417930
0.416649
0.416649
0.416649
0.414087
0.410243
0.410243
0.412806
0.410243
0.410243
0.407681
0.407681
0.406400
0.406400
0.405119
0.403838
0.403838
0.399994
0.402556
0.398713
0.396150
0.398713
0.394869
0.394869
0.396150
0.392307
0.391026
0.389745
0.387182
0.387182
0.384620
0.385901
0.383339
0.383339
0.383339
0.382058
0.379495
0.378214
0.378214
0.375652
0.380776
0.375652
0.375652
0.378214
0.374370
0.374370
0.373089
0.371808
0.369246
0.374370
0.370527
0.370527
0.369246
0.369246
0.369246
0.369246
0.366683
0.370527
0.369246
0.367965
0.366683
0.366683
0.366683
0.367965
0.365402
0.364121
0.362840
0.364121
0.362840
0.367965
0.364121
0.362840
0.364121
0.362840
0.362840
0.362840
0.360278
0.360278
0.358996
0.358996
0.357715
0.353872
0.351309
0.353872
0.355153
0.353872
0.352590
0.351309
0.350028
0.350028
0.348747
0.350028
0.347466
0.347466
0.347466
0.344903
0.347466
0.346185
0.346185
0.344903
0.344903
0.346185
0.342341
0.344903
0.343622
0.342341
0.346185
0.343622
0.343622
0.343622
0.343622
0.342341
0.342341
0.341060
0.339779
0.339779
0.337216
0.339779
0.337216
0.334654
0.334654
0.335935
0.333373
0.333373
0.335935
0.335935
0.334654
0.333373
0.332092
0.334654
0.329529
0.329529
0.329529
0.333373
0.330810
0.333373
0.332092
0.329529
0.329529
0.334654
0.328248
0.332092
0.330810
0.328248
0.332092
0.328248
0.329529
0.328248
0.325686
0.328248
0.328248
0.324405
0.324405
0.326967
0.328248
0.325686
0.328248
0.325686
0.324405
0.321842
0.321842
0.317999
0.316718
0.317999
0.317999
0.319280
0.320561
0.319280
0.316718
0.319280
0.317999
0.315436
0.315436
0.314155
0.312874
0.312874
0.310312
0.310312
0.312874
0.309030
0.307749
0.307749
0.309030
0.310312
0.306468
0.305187
0.303906
0.306468
0.302625
0.302625
0.302625
0.302625
0.302625
0.302625
0.301343
0.298781
0.297500
0.300062
0.297500
0.298781
0.296219
0.296219
0.297500
0.296219
0.296219
0.296219
0.297500
0.297500
0.296219
0.294938
0.296219
0.296219
0.297500
0.294938
0.296219
0.296219
0.293656
0.294938
0.292375
0.293656
0.293656
0.289813
0.289813
0.293656
0.291094
0.291094
0.291094
0.291094
0.289813
0.291094
0.288532
0.287250
0.289813
0.285969
0.285969
0.284688
0.283407
0.285969
0.283407
0.283407
0.280845
0.282126
0.282126
0.282126
0.280845
0.279563
0.277001
0.278282
0.277001
0.280845
0.279563
0.280845
0.282126
0.285969
0.285969
0.288532
0.287250
0.288532
0.288532
0.289813
0.287250
0.287250
0.288532
0.287250
0.288532
0.287250
0.284688
0.285969
0.284688
0.285969
0.284688
0.280845
0.280845
0.282126
0.282126
0.280845
0.282126
0.278282
0.279563
0.282126
0.279563
0.280845
0.284688
0.279563
0.279563
0.278282
0.280845
0.278282
0.277001
0.278282
0.275720
0.277001
0.275720
0.273158
0.274439
0.273158
0.271876
0.273158
0.274439
0.273158
0.270595
0.271876
0.273158
0.269314
0.271876
0.268033
0.271876
0.269314
0.271876
0.271876
0.268033
0.270595
0.269314
0.269314
0.266752
0.271876
0.269314
0.266752
0.268033
0.269314
0.266752
0.264189
0.268033
0.265470
0.264189
0.262908
0.268033
0.262908
0.265470
0.262908
0.264189
0.261627
0.261627
0.261627
0.261627
0.262908
0.261627
0.261627
0.257783
0.260346
0.261627
0.259065
0.259065
0.256502
0.257783
0.260346
0.259065
0.257783
0.257783
0.256502
0.257783
0.256502
0.256502
0.253940
0.255221
0.256502
0.253940
0.255221
0.256502
0.253940
0.255221
0.251377
0.252659
0.252659
0.253940
0.253940
0.251377
0.253940
0.253940
0.253940
0.253940
0.253940
0.252659
0.252659
0.255221
0.253940
0.253940
0.253940
0.253940
0.255221
0.255221
0.252659
0.253940
0.253940
0.255221
0.255221
0.255221
0.253940
0.253940
0.256502
0.250096
0.250096
0.252659
0.253940
0.236003
0.209099
0.212942
0.220629
0.215505
0.220629
0.221910
0.227035
0.229597
0.230879
0.228316
0.234722
0.238566
0.237285
0.233441
0.230879
0.228316
0.229597
0.228316
0.238566
0.242409
0.251377
0.253940
0.256502
0.257783
0.256502
0.248815
0.247534
0.246253
0.247534
0.248815
0.251377
0.255221
0.266752
0.257783
0.255221
0.252659
0.252659
0.253940
0.259065
0.257783
0.259065
0.261627
0.261627
0.262908
0.261627
0.262908
0.262908
0.264189
0.265470
0.262908
0.262908
0.257783
0.259065
0.257783
0.255221
0.248815
0.251377
0.248815
0.262908
0.266752
0.266752
0.269314
0.266752
0.271876
0.270595
0.270595
0.273158
0.274439
0.277001
0.278282
0.277001
0.274439
0.273158
0.273158
0.273158
0.271876
0.261627
0.260346
0.300062
0.297500
0.277001
0.279563
0.282126
0.285969
0.287250
0.289813
0.293656
0.296219
0.302625
0.303906
0.301343
0.301343
0.301343
0.302625
0.302625
0.303906
0.305187
0.294938
0.287250
0.320561
0.373089
0.355153
0.370527
0.382058
0.393588
0.398713
0.396150
0.416649
0.423055
0.420493
0.420493
0.416649
0.417930
0.419212
0.415368
0.415368
0.410243
0.405119
0.406400
0.405119
0.405119
0.399994
0.396150
0.394869
0.398713
0.401275
0.398713
0.394869
0.394869
0.393588
0.393588
0.401275
0.396150
0.396150
0.391026
0.391026
0.389745
0.392307
0.393588
0.396150
0.408962
0.428180
0.432023
0.437148
0.434586
0.424336
0.424336
0.423055
0.402556
0.396150
0.399994
0.401275
0.398713
0.401275
0.401275
0.405119
0.402556
0.412806
0.408962
0.410243
0.414087
0.420493
0.419212
0.419212
0.423055
0.417930
0.415368
0.416649
0.406400
0.447398
0.461490
0.480708
0.473021
0.389745
0.449960
0.457647
0.460209
0.446116
0.442273
0.444835
0.452522
0.453803
0.451241
0.453803
0.456366
0.449960
0.455085
0.453803
0.465334
0.466615
0.467896
0.474302
0.492239
0.487114
0.474302
0.474302
0.351309
0.460209
0.460209
0.446116
0.457647
0.457647
0.453803
0.457647
0.460209
0.438429
0.444835
0.449960
0.449960
0.451241
0.449960
0.449960
0.449960
0.451241
0.452522
0.457647
0.457647
0.458928
0.460209
0.460209
0.461490
0.464053
0.464053
0.464053
0.465334
0.464053
0.465334
0.462772
0.462772
0.464053
0.462772
0.462772
0.465334
0.469178
0.471740
0.474302
0.475583
0.480708
0.487114
0.485833
0.485833
0.483270
0.474302
0.471740
0.481989
0.487114
0.488395
0.490958
0.492239
0.492239
0.492239
0.494801
0.496082
0.496082
0.497363
0.497363
0.493520
0.488395
0.484552
0.485833
0.483270
0.479427
0.480708
0.485833
0.487114
0.478146
0.475583
0.474302
0.480708
0.480708
0.478146
0.481989
0.480708
0.478146
0.483270
0.480708
0.481989
0.481989
0.481989
0.478146
0.478146
0.479427
0.481989
0.483270
0.481989
0.489676
0.490958
0.490958
0.490958
0.492239
0.494801
0.496082
0.501207
0.502488
0.505050
0.505050
0.508894
0.507613
0.503769
0.498645
0.496082
0.490958
0.490958
0.489676
0.489676
0.479427
0.474302
0.483270
0.481989
0.484552
0.487114
0.483270
0.485833
0.487114
0.487114
0.489676
0.490958
0.489676
0.489676
0.485833
0.489676
0.487114
0.489676
0.485833
0.483270
0.484552
0.483270
0.483270
0.483270
0.485833
0.480708
0.479427
0.479427
0.478146
0.479427
0.478146
0.476865
0.479427
0.478146
0.478146
0.478146
0.479427
0.479427
0.476865
0.478146
0.479427
0.480708
0.479427
0.475583
0.478146
0.476865
0.475583
0.474302
0.471740
0.474302
0.473021
0.473021
0.476865
0.474302
0.473021
0.475583
0.475583
0.476865
0.475583
0.473021
0.471740
0.470459
0.467896
0.469178
0.467896
0.466615
0.467896
0.465334
0.466615
0.464053
0.464053
0.462772
0.461490
0.464053
0.461490
0.461490
0.461490
0.460209
0.457647
0.460209
0.457647
0.456366
0.456366
0.456366
0.457647
0.453803
0.452522
0.453803
0.452522
0.449960
0.451241
0.448679
0.448679
0.446116
0.446116
0.448679
0.444835
0.447398
0.444835
0.444835
0.443554
0.442273
0.443554
0.442273
0.440992
0.440992
0.443554
0.440992
0.439710
0.443554
0.443554
0.440992
0.439710
0.440992
0.442273
0.439710
0.439710
0.437148
0.438429
0.438429
0.437148
0.437148
0.434586
0.432023
0.433305
0.433305
0.435867
0.433305
0.433305
0.430742
0.432023
0.429461
0.429461
0.428180
0.426899
0.428180
0.428180
0.425618
0.425618
0.423055
0.424336
0.423055
0.419212
0.421774
0.420493
0.421774
0.421774
0.417930
0.417930
0.417930
0.417930
0.419212
0.416649
0.419212
0.419212
0.416649
0.415368
0.412806
0.415368
0.414087
0.414087
0.414087
0.412806
0.412806
0.412806
0.408962
0.411525
0.410243
0.410243
0.408962
0.406400
0.407681
0.407681
0.407681
0.406400
0.405119
0.405119
0.402556
0.405119
0.402556
0.403838
0.402556
0.402556
0.403838
0.401275
0.401275
0.402556
0.399994
0.402556
0.399994
0.398713
0.398713
0.397432
0.398713
0.396150
0.396150
0.396150
0.393588
0.394869
0.393588
0.392307
0.394869
0.394869
0.391026
0.392307
0.392307
0.392307
0.391026
0.389745
0.391026
0.387182
0.389745
0.388463
0.387182
0.388463
0.391026
0.392307
0.391026
0.392307
0.394869
0.396150
0.397432
0.394869
0.391026
0.392307
0.391026
0.391026
0.391026
0.388463
0.387182
0.387182
0.388463
0.389745
0.388463
0.388463
0.384620
0.383339
0.383339
0.385901
0.383339
0.382058
0.383339
0.383339
0.380776
0.382058
0.382058
0.380776
0.379495
0.379495
0.382058
0.379495
0.380776
0.376933
0.378214
0.376933
0.375652
0.375652
0.375652
0.373089
0.371808
0.374370
0.373089
0.370527
0.370527
0.371808
0.370527
0.370527
0.367965
0.369246
0.369246
0.365402
0.369246
0.365402
0.362840
0.366683
0.364121
0.365402
0.365402
0.365402
0.361559
0.361559
0.361559
0.358996
0.358996
0.358996
0.358996
0.360278
0.357715
0.358996
0.357715
0.355153
0.355153
0.353872
0.353872
0.355153
0.353872
0.353872
0.355153
0.351309
0.350028
0.351309
0.352590
0.351309
0.350028
0.350028
0.348747
0.351309
0.348747
0.347466
0.347466
0.348747
0.348747
0.346185
0.346185
0.347466
0.344903
0.346185
0.344903
0.343622
0.346185
0.342341
0.343622
0.343622
0.342341
0.339779
0.341060
0.341060
0.341060
0.339779
0.341060
0.341060
0.337216
0.337216
0.337216
0.335935
0.334654
0.333373
0.335935
0.332092
0.334654
0.332092
0.329529
0.329529
0.328248
0.326967
0.330810
0.325686
0.325686
0.324405
0.324405
0.323123
0.325686
0.328248
0.325686
0.323123
0.324405
0.323123
0.323123
0.323123
0.320561
0.323123
0.320561
0.320561
0.321842
0.320561
0.321842
0.319280
0.319280
0.317999
0.315436
0.317999
0.320561
0.316718
0.316718
0.317999
0.316718
0.315436
0.314155
0.315436
0.316718
0.315436
0.314155
0.310312
0.314155
0.311593
0.314155
0.311593
0.310312
0.310312
0.307749
0.306468
0.307749
0.307749
0.307749
0.309030
0.306468
0.306468
0.303906
0.307749
0.306468
0.306468
0.303906
0.306468
0.305187
0.303906
0.303906
0.305187
0.303906
0.301343
0.305187
0.303906
0.303906
0.305187
0.303906
0.300062
0.302625
0.301343
0.300062
0.301343
0.298781
0.298781
0.297500
0.297500
0.297500
0.298781
0.297500
0.298781
0.297500
0.298781
0.297500
0.294938
0.294938
0.296219
0.293656
0.292375
0.292375
0.294938
0.289813
0.293656
0.293656
0.292375
0.291094
0.289813
0.289813
0.289813
0.288532
0.285969
0.283407
0.285969
0.284688
0.285969
0.283407
0.283407
0.280845
0.283407
0.282126
0.279563
0.279563
0.279563
0.277001
0.277001
0.277001
0.278282
0.275720
0.275720
0.277001
0.274439
0.274439
0.274439
0.270595
0.274439
0.271876
0.271876
0.273158
0.270595
0.271876
0.270595
0.271876
0.270595
0.270595
0.269314
0.266752
0.269314
0.266752
0.269314
0.268033
0.266752
0.266752
0.268033
0.265470
0.264189
0.265470
0.266752
0.265470
0.268033
0.265470
0.268033
0.264189
0.264189
0.265470
0.264189
0.261627
0.260346
0.260346
0.260346
0.261627
0.261627
0.260346
0.259065
0.260346
0.261627
0.260346
0.261627
0.261627
0.259065
0.257783
0.259065
0.256502
0.256502
0.256502
0.257783
0.255221
0.256502
0.251377
0.255221
0.256502
0.256502
0.255221
0.257783
0.253940
0.253940
0.256502
0.252659
0.252659
0.251377
0.252659
0.252659
0.251377
0.255221
0.253940
0.252659
0.251377
0.252659
0.251377
0.250096
0.248815
0.251377
0.250096
0.248815
0.251377
0.248815
0.248815
0.248815
0.248815
0.248815
0.250096
0.247534
0.247534
0.247534
0.246253
0.244972
0.244972
0.241128
0.246253
0.244972
0.243690
0.246253
0.242409
0.241128
0.244972
0.242409
0.243690
0.243690
0.242409
0.242409
0.241128
0.241128
0.241128
0.239847
0.241128
0.242409
0.239847
0.239847
0.238566
0.236003
0.239847
0.237285
0.237285
0.238566
0.237285
0.236003
0.236003
0.233441
0.236003
0.238566
0.237285
0.232160
0.236003
0.236003
0.234722
0.236003
0.233441
0.236003
0.233441
0.236003
0.236003
0.232160
0.234722
0.233441
0.233441
0.233441
0.233441
0.233441
0.230879
0.232160
0.230879
0.233441
0.230879
0.229597
0.229597
0.229597
0.228316
0.227035
0.228316
0.227035
0.227035
0.225754
0.228316
0.227035
0.225754
0.228316
0.225754
0.225754
0.225754
0.225754
0.224473
0.221910
0.221910
0.224473
0.223192
0.224473
0.224473
0.223192
0.221910
0.221910
0.220629
0.221910
0.219348
0.220629
0.221910
0.219348
0.220629
0.220629
0.220629
0.219348
0.219348
0.219348
0.218067
0.218067
0.221910
0.218067
0.218067
0.216786
0.219348
0.218067
0.218067
0.218067
0.215505
0.216786
0.219348
0.215505
0.218067
0.216786
0.215505
0.218067
0.215505
0.214223
0.216786
0.214223
0.214223
0.214223
0.215505
0.215505
0.216786
0.214223
0.211661
0.212942
0.212942
0.214223
0.212942
0.211661
0.211661
0.212942
0.212942
0.210380
0.211661
0.212942
0.212942
0.210380
0.211661
0.210380
0.209099
0.211661
0.209099
0.211661
0.210380
0.207817
0.211661
0.209099
0.209099
0.209099
0.207817
0.210380
0.206536
0.209099
0.210380
0.206536
0.205255
0.206536
0.206536
0.205255
0.206536
0.205255
0.205255
0.205255
0.205255
0.206536
0.206536
0.205255
0.203974
0.205255
0.203974
0.202693
0.205255
0.203974
0.201412
0.205255
0.205255
0.201412
0.206536
0.203974
0.201412
0.201412
0.202693
0.200130
0.203974
0.202693
0.202693
0.201412
0.202693
0.201412
0.200130
0.202693
0.200130
0.201412
0.202693
0.201412
0.201412
0.203974
0.200130
0.200130
0.203974
0.198849
0.201412
0.198849
0.200130
0.201412
0.197568
0.198849
0.200130
0.200130
0.200130
0.196287
0.200130
0.197568
0.198849
0.197568
0.196287
0.195006
0.197568
0.197568
0.197568
0.196287
0.198849
0.197568
0.196287
0.197568
0.195006
0.197568
0.196287
0.195006
0.195006
0.196287
0.196287
0.196287
0.193725
0.195006
0.196287
0.195006
0.191162
0.193725
0.195006
0.196287
0.196287
0.195006
0.193725
0.195006
0.193725
0.193725
0.195006
0.191162
0.191162
0.192443
0.191162
0.195006
0.191162
0.191162
0.191162
0.193725
0.192443
0.192443
0.192443
0.193725
0.195006
0.189881
0.191162
0.192443
0.192443
0.192443
0.193725
0.193725
0.192443
0.191162
0.192443
0.191162
0.189881
0.192443
0.191162
0.189881
0.192443
0.189881
0.188600
0.189881
0.191162
0.189881
0.188600
0.189881
0.188600
0.189881
0.187319
0.186037
0.189881
0.186037
0.187319
0.189881
0.187319
0.189881
0.187319
0.189881
0.188600
0.186037
0.187319
0.186037
0.186037
0.187319
0.187319
0.186037
0.187319
0.186037
0.188600
0.186037
0.186037
0.186037
0.183475
0.184756
0.183475
0.184756
0.186037
0.183475
0.183475
0.182194
0.182194
0.182194
0.182194
0.184756
0.182194
0.182194
0.183475
0.180913
0.183475
0.184756
0.182194
0.180913
0.180913
0.183475
0.179632
0.182194
0.180913
0.183475
0.183475
0.179632
0.182194
0.183475
0.180913
0.179632
0.182194
0.178350
0.182194
0.183475
0.179632
0.182194
0.179632
0.182194
0.182194
0.178350
0.180913
0.182194
0.179632
0.178350
0.175788
0.178350
0.179632
0.178350
0.180913
0.179632
0.179632
0.177069
0.179632
0.178350
0.178350
0.178350
0.175788
0.179632
0.177069
0.175788
0.178350
0.177069
0.178350
0.175788
0.177069
0.177069
0.177069
0.177069
0.175788
0.175788
0.178350
0.175788
0.175788
0.174507
0.175788
0.175788
0.173226
0.171945
0.175788
0.174507
0.173226
0.173226
0.174507
0.173226
0.173226
0.171945
0.173226
0.171945
0.171945
0.174507
0.173226
0.169382
0.171945
0.171945
0.174507
0.173226
0.170663
0.173226
0.170663
0.171945
0.171945
0.169382
0.170663
0.168101
0.171945
0.168101
0.168101
0.170663
0.169382
0.169382
0.169382
0.168101
0.169382
0.168101
0.166820
0.169382
0.168101
0.170663
0.168101
0.169382
0.171945
0.166820
0.170663
0.168101
0.169382
0.168101
0.169382
0.166820
0.170663
0.168101
0.166820
0.168101
0.166820
0.165539
0.166820
0.166820
0.166820
0.168101
0.165539
0.168101
0.165539
0.166820
0.165539
0.166820
0.166820
0.165539
0.168101
0.166820
0.169382
0.168101
0.165539
0.166820
0.164257
0.166820
0.165539
0.164257
0.166820
0.165539
0.168101
0.168101
0.165539
0.161695
0.165539
0.165539
0.164257
0.162976
0.164257
0.164257
0.164257
0.166820
0.164257
0.164257
0.164257
0.164257
0.165539
0.162976
0.161695
0.161695
0.162976
0.164257
0.160414
0.164257
0.160414
0.161695
0.162976
0.160414
0.160414
0.160414
0.160414
0.162976
0.160414
0.161695
0.161695
0.160414
0.162976
0.160414
0.161695
0.159133
0.157852
0.161695
0.161695
0.160414
0.159133
0.159133
0.159133
0.159133
0.157852
0.156570
0.157852
0.159133
0.160414
0.160414
0.160414
0.159133
0.156570
0.156570
0.159133
0.160414
0.159133
0.156570
0.160414
0.160414
0.156570
0.155289
0.156570
0.157852
0.157852
0.156570
0.157852
0.156570
0.157852
0.157852
0.155289
0.157852
0.156570
0.154008
0.157852
0.155289
0.155289
0.155289
0.156570
0.156570
0.159133
0.154008
0.156570
0.155289
0.152727
0.156570
0.154008
0.155289
0.156570
0.154008
0.152727
0.156570
0.152727
0.155289
0.152727
0.155289
0.156570
0.156570
0.155289
0.152727
0.152727
0.152727
0.152727
0.152727
0.152727
0.150165
0.151446
0.152727
0.150165
0.154008
0.152727
0.151446
0.152727
0.151446
0.152727
0.152727
0.150165
0.152727
0.151446
0.150165
0.152727
0.150165
0.150165
0.150165
0.151446
0.151446
0.147602
0.150165
0.151446
0.154008
0.148883
0.151446
0.151446
0.154008
0.150165
0.150165
0.150165
0.150165
0.152727
0.150165
0.148883
0.147602
0.148883
0.150165
0.148883
0.147602
0.147602
0.151446
0.150165
0.147602
0.146321
0.150165
0.147602
0.150165
0.147602
0.148883
0.147602
0.146321
0.148883
0.146321
0.147602
0.150165
0.147602
0.148883
0.148883
0.145040
0.147602
0.148883
0.146321
0.146321
0.147602
0.147602
0.146321
0.146321
0.146321
0.146321
0.148883
0.145040
0.148883
0.147602
0.147602
0.146321
0.147602
0.145040
0.146321
0.145040
0.146321
0.147602
0.146321
0.145040
0.143759
0.145040
0.145040
0.146321
0.145040
0.147602
0.147602
0.145040
0.150165
0.146321
0.146321
0.146321
0.145040
0.145040
0.145040
0.145040
0.146321
0.145040
0.143759
0.145040
0.143759
0.145040
0.145040
0.143759
0.145040
0.142477
0.145040
0.147602
0.142477
0.146321
0.145040
0.141196
0.145040
0.143759
0.143759
0.141196
0.143759
0.145040
0.142477
0.142477
0.145040
0.143759
0.145040
0.143759
0.142477
0.145040
0.142477
0.141196
0.145040
0.143759
0.142477
0.143759
0.141196
0.143759
0.142477
0.143759
0.141196
0.142477
0.143759
0.142477
0.143759
0.145040
0.141196
0.143759
0.142477
0.143759
0.142477
0.143759
0.142477
0.143759
0.143759
0.145040
0.139915
0.141196
0.139915
0.141196
0.139915
0.141196
0.139915
0.142477
0.141196
0.142477
0.139915
0.141196
0.143759
0.139915
0.143759
0.142477
0.141196
0.142477
0.142477
0.141196
0.143759
0.142477
0.142477
0.142477
0.141196
0.139915
0.142477
0.141196
0.142477
0.138634
0.142477
0.139915
0.138634
0.136072
0.137353
0.138634
0.139915
0.138634
0.139915
0.138634
0.138634
0.138634
0.136072
0.141196
0.136072
0.137353
0.139915
0.138634
0.136072
0.138634
0.134790
0.139915
0.137353
0.136072
0.138634
0.136072
0.137353
0.137353
0.136072
0.137353
0.137353
0.136072
0.134790
0.136072
0.136072
0.137353
0.136072
0.137353
0.137353
0.136072
0.134790
0.134790
0.138634
0.136072
0.134790
0.134790
0.136072
0.134790
0.138634
0.133509
0.136072
0.133509
0.133509
0.136072
0.134790
0.134790
0.136072
0.137353
0.137353
0.134790
0.134790
0.137353
0.133509
0.134790
0.136072
0.134790
0.137353
0.134790
0.134790
0.136072
0.133509
0.132228
0.134790
0.134790
0.137353
0.134790
0.136072
0.134790
0.132228
0.136072
0.132228
0.133509
0.133509
0.134790
0.132228
0.133509
0.132228
0.132228
0.133509
0.132228
0.132228
0.132228
0.136072
0.134790
0.133509
0.133509
0.133509
0.132228
0.136072
0.132228
0.136072
0.133509
0.133509
0.133509
0.132228
0.133509
0.132228
0.130947
0.133509
0.130947
0.129666
0.133509
0.133509
0.133509
0.133509
0.132228
0.133509
0.133509
0.132228
0.130947
0.129666
0.133509
0.130947
0.129666
0.130947
0.129666
0.132228
0.130947
0.130947
0.130947
0.129666
0.132228
0.129666
0.132228
0.130947
0.128385
0.128385
0.130947
0.132228
0.133509
0.128385
0.130947
0.129666
0.129666
0.132228
0.130947
0.130947
0.132228
0.130947
0.130947
0.129666
0.130947
0.128385
0.128385
0.129666
0.128385
0.132228
0.130947
0.130947
0.128385
0.127103
0.128385
0.129666
0.128385
0.128385
0.130947
0.128385
0.130947
0.127103
0.129666
0.130947
0.127103
0.127103
0.127103
0.129666
0.129666
0.127103
0.129666
0.128385
0.128385
0.129666
0.128385
0.129666
0.128385
0.127103
0.125822
0.127103
0.128385
0.129666
0.127103
0.129666
0.125822
0.129666
0.129666
0.128385
0.127103
0.127103
0.128385
0.128385
0.125822
0.129666
0.128385
0.125822
0.128385
0.127103
0.127103
0.127103
0.125822
0.128385
0.125822
0.125822
0.128385
0.125822
0.128385
0.128385
0.125822
0.128385
0.128385
0.127103
0.128385
0.128385
0.128385
0.128385
0.125822
0.125822
0.124541
0.125822
0.125822
0.125822
0.127103
0.123260
0.124541
0.124541
0.128385
0.125822
0.124541
0.125822
0.127103
0.124541
0.125822
0.124541
0.125822
0.123260
0.127103
0.125822
0.127103
0.123260
0.123260
0.124541
0.123260
0.123260
0.124541
0.123260
0.124541
0.123260
0.124541
0.123260
0.123260
0.123260
0.124541
0.125822
0.125822
0.121979
0.123260
0.124541
0.125822
0.123260
0.124541
0.123260
0.123260
0.125822
0.127103
0.125822
0.127103
0.123260
0.124541
0.123260
0.123260
0.123260
0.123260
0.124541
0.123260
0.121979
0.120697
0.123260
0.120697
0.121979
0.120697
0.121979
0.121979
0.119416
0.121979
0.119416
0.118135
0.121979
0.119416
0.120697
0.118135
0.118135
0.121979
0.119416
0.120697
0.120697
0.120697
0.120697
0.119416
0.118135
0.120697
0.120697
0.121979
0.120697
0.118135
0.119416
0.116854
0.121979
0.116854
0.120697
0.123260
0.120697
0.119416
0.123260
0.123260
0.116854
0.120697
0.119416
0.120697
0.119416
0.119416
0.120697
0.120697
0.119416
0.121979
0.120697
0.119416
0.120697
0.119416
0.121979
0.119416
0.116854
0.120697
0.120697
0.119416
0.120697
0.119416
0.118135
0.120697
0.118135
0.120697
0.118135
0.118135
0.118135
0.120697
0.115573
0.116854
0.116854
0.115573
0.119416
0.116854
0.119416
0.116854
0.116854
0.119416
0.116854
0.119416
0.119416
0.119416
0.118135
0.118135
0.115573
0.119416
0.116854
0.118135
0.116854
0.118135
0.115573
0.116854
0.118135
0.118135
0.118135
0.118135
0.118135
0.115573
0.119416
0.118135
0.116854
0.118135
0.120697
0.118135
0.118135
0.116854
0.118135
0.115573
0.116854
0.115573
0.115573
0.116854
0.118135
0.115573
0.115573
0.116854
0.116854
0.119416
0.115573
0.116854
0.114292
0.114292
0.118135
0.114292
0.116854
0.118135
0.116854
0.118135
0.116854
0.115573
0.116854
0.115573
0.116854
0.116854
0.116854
0.119416
0.118135
0.115573
0.116854
0.115573
0.115573
0.115573
0.115573
0.118135
0.114292
0.114292
0.116854
0.115573
0.116854
0.114292
0.114292
0.116854
0.115573
0.114292
0.115573
0.115573
0.114292
0.118135
0.116854
0.118135
0.116854
0.115573
0.115573
0.115573
0.114292
0.115573
0.115573
0.115573
0.116854
0.114292
0.116854
0.115573
0.114292
0.115573
0.114292
0.118135
0.118135
0.114292
0.114292
0.113010
0.114292
0.114292
0.116854
0.116854
0.118135
0.111729
0.115573
0.115573
0.114292
0.115573
0.114292
0.115573
0.115573
0.113010
0.116854
0.116854
0.114292
0.115573
0.111729
0.113010
0.114292
0.111729
0.115573
0.110448
0.113010
0.114292
0.113010
0.113010
0.110448
0.111729
0.114292
0.113010
0.111729
0.113010
0.113010
0.113010
0.111729
0.111729
0.110448
0.111729
0.113010
0.114292
0.111729
0.114292
0.111729
0.111729
0.111729
0.111729
0.111729
0.111729
0.110448
0.113010
0.113010
0.109167
0.111729
0.113010
0.110448
0.113010
0.111729
0.111729
0.113010
0.111729
0.111729
0.113010
0.109167
0.114292
0.111729
0.109167
0.113010
0.110448
0.110448
0.113010
0.111729
0.109167
0.110448
0.110448
0.110448
0.113010
0.113010
0.111729
0.111729
0.111729
0.111729
0.110448
0.110448
0.109167
0.110448
0.113010
0.113010
0.111729
0.109167
0.109167
0.113010
0.111729
0.110448
0.111729
0.110448
0.113010
0.110448
0.111729
0.113010
0.111729
0.110448
0.109167
0.111729
0.113010
0.111729
0.110448
0.113010
0.113010
0.111729
0.111729
0.110448
0.113010
0.110448
0.111729
0.113010
0.109167
0.111729
0.111729
0.110448
0.111729
0.111729
0.110448
0.111729
0.113010
0.111729
0.110448
0.109167
0.110448
0.110448
0.107886
0.111729
0.109167
0.109167
0.113010
0.109167
0.110448
0.109167
0.109167
0.109167
0.109167
0.110448
0.110448
0.107886
0.110448
0.107886
0.107886
0.107886
0.107886
0.106605
0.107886
0.107886
0.105323
0.107886
0.110448
0.106605
0.105323
0.109167
0.107886
0.107886
0.107886
0.106605
0.106605
0.109167
0.110448
0.109167
0.107886
0.109167
0.105323
0.106605
0.107886
0.106605
0.109167
0.105323
0.107886
0.109167
0.106605
0.107886
0.107886
0.106605
0.106605
0.105323
0.104042
0.106605
0.105323
0.107886
0.105323
0.105323
0.105323
0.105323
0.109167
0.105323
0.105323
0.106605
0.105323
0.105323
0.106605
0.105323
0.110448
0.104042
0.107886
0.109167
0.105323
0.105323
0.107886
0.106605
0.106605
0.107886
0.107886
0.106605
0.107886
0.105323
0.107886
0.107886
0.109167
0.105323
0.105323
0.107886
0.105323
0.106605
0.106605
0.105323
0.109167
0.106605
0.105323
0.107886
0.105323
0.106605
0.107886
0.105323
0.109167
0.105323
0.104042
0.105323
0.105323
0.105323
0.105323
0.105323
0.104042
0.104042
0.106605
0.107886
0.102761
0.104042
0.105323
0.105323
0.104042
0.104042
0.105323
0.100199
0.104042
0.106605
0.105323
0.105323
0.106605
0.102761
0.105323
0.104042
0.102761
0.104042
0.104042
0.105323
0.106605
0.104042
0.106605
0.104042
0.105323
0.106605
0.106605
0.105323
0.104042
0.102761
0.105323
0.105323
0.106605
0.105323
0.102761
0.102761
0.101480
0.104042
0.102761
0.102761
0.104042
0.102761
0.102761
0.106605
0.104042
0.104042
0.106605
0.104042
0.102761
0.104042
0.106605
0.105323
0.104042
0.106605
0.104042
0.102761
0.104042
0.101480
0.104042
0.104042
0.101480
0.102761
0.101480
0.104042
0.102761
0.104042
0.102761
0.102761
0.105323
0.105323
0.101480
0.105323
0.102761
0.102761
0.101480
0.102761
0.105323
0.101480
0.101480
0.105323
0.102761
0.102761
0.102761
0.101480
0.105323
0.102761
0.104042
0.101480
0.104042
0.105323
0.102761
0.105323
0.104042
0.102761
0.104042
0.102761
0.101480
0.100199
0.106605
0.104042
0.104042
0.102761
0.104042
0.104042
0.105323
0.101480
0.102761
0.104042
0.101480
0.104042
0.104042
0.102761
0.104042
0.101480
0.102761
0.101480
0.100199
0.102761
0.102761
0.101480
0.101480
0.100199
0.101480
0.102761
0.101480
0.101480
0.102761
0.100199
0.102761
0.100199
0.102761
0.104042
0.102761
0.102761
0.101480
0.101480
0.102761
0.101480
0.102761
0.105323
0.101480
0.105323
0.104042
0.102761
0.101480
0.101480
0.101480
0.106605
0.107886
0.110448
0.107886
0.109167
0.109167
0.107886
0.104042
0.105323
0.104042
0.106605
0.104042
0.101480
0.106605
0.104042
0.102761
0.105323
0.105323
0.106605
0.105323
0.105323
0.107886
0.105323
0.105323
0.102761
0.102761
0.105323
0.104042
0.105323
0.104042
0.102761
0.105323
0.105323
0.104042
0.104042
0.104042
0.105323
0.104042
0.104042
0.106605
0.102761
0.101480
0.105323
0.102761
0.104042
0.105323
0.104042
0.105323
0.105323
0.104042
0.105323
0.104042
0.105323
0.104042
0.102761
0.104042
0.102761
0.104042
0.104042
0.104042
0.105323
0.106605
0.101480
0.104042
0.102761
0.104042
0.104042
0.102761
0.105323
0.105323
0.104042
0.105323
0.106605
0.107886
0.105323
0.104042
0.102761
0.104042
0.104042
0.105323
0.104042
0.104042
0.105323
0.105323
0.104042
0.102761
0.101480
0.106605
0.104042
0.106605
0.104042
0.102761
0.104042
0.102761
0.102761
0.104042
0.102761
0.104042
0.102761
0.104042
0.101480
0.102761
0.105323
0.105323
0.102761
0.104042
0.104042
0.101480
0.104042
0.102761
0.104042
0.106605
0.102761
0.100199
0.101480
0.102761
0.104042
0.102761
0.105323
0.104042
0.102761
0.102761
0.102761
0.104042
0.101480
0.102761
0.105323
0.104042
0.104042
0.104042
0.102761
0.105323
0.102761
0.102761
0.105323
0.101480
0.102761
0.101480
0.102761
0.104042
0.101480
0.101480
0.100199
0.104042
0.102761
0.105323
0.102761
0.101480
0.101480
0.102761
0.104042
0.102761
0.104042
0.104042
0.101480
0.102761
0.101480
0.102761
0.102761
0.100199
0.101480
0.098917
0.101480
0.102761
0.100199
0.102761
0.102761
0.102761
0.104042
0.101480
0.102761
0.104042
0.101480
0.102761
0.101480
0.102761
0.101480
0.101480
0.102761
0.098917
0.102761
0.104042
0.101480
0.100199
0.102761
0.100199
0.101480
0.101480
0.102761
0.101480
0.101480
0.100199
0.100199
0.100199
0.101480
0.098917
0.102761
0.102761
0.101480
0.102761
0.101480
0.101480
0.102761
0.101480
0.102761
0.102761
0.100199
0.102761
0.100199
0.100199
0.102761
0.098917
0.098917
0.100199
0.101480
0.101480
0.098917
0.101480
0.101480
0.101480
0.100199
0.098917
0.100199
0.100199
0.098917
0.100199
0.101480
0.105323
0.104042
0.100199
0.101480
0.101480
0.098917
0.101480
0.098917
0.100199
0.100199
0.102761
0.102761
0.101480
0.100199
0.102761
0.100199
0.098917
0.098917
0.105323
0.102761
0.098917
0.098917
0.100199
0.098917
0.098917
0.097636
0.097636
0.100199
0.096355
0.097636
0.097636
0.097636
0.098917
0.093793
0.098917
0.100199
0.097636
0.098917
0.100199
0.097636
0.100199
0.098917
0.098917
0.098917
0.097636
0.097636
0.097636
0.098917
0.096355
0.096355
0.096355
0.098917
0.095074
0.098917
0.098917
0.096355
0.098917
0.097636
0.098917
0.097636
0.098917
0.097636
0.096355
0.096355
0.097636
0.096355
0.097636
0.095074
0.095074
0.097636
0.097636
0.095074
0.097636
0.096355
0.098917
0.095074
0.097636
0.097636
0.096355
0.096355
0.098917
0.095074
0.096355
0.097636
0.096355
0.096355
0.096355
0.097636
0.096355
0.095074
0.097636
0.096355
0.096355
0.095074
0.095074
0.097636
0.097636
0.093793
0.096355
0.095074
0.095074
0.097636
0.093793
0.096355
0.096355
0.095074
0.095074
0.095074
0.096355
0.095074
0.093793
0.092512
0.093793
0.098917
0.095074
0.095074
0.097636
0.097636
0.093793
0.092512
0.097636
0.093793
0.096355
0.095074
0.095074
0.095074
0.095074
0.092512
0.093793
0.095074
0.093793
0.095074
0.092512
0.092512
0.093793
0.096355
0.095074
0.096355
0.096355
0.095074
0.096355
0.097636
0.097636
0.098917
0.095074
0.097636
0.098917
0.097636
0.097636
0.096355
0.097636
0.098917
0.097636
0.100199
0.095074
0.097636
0.100199
0.097636
0.100199
0.097636
0.095074
0.100199
0.097636
0.097636
0.100199
0.098917
0.098917
0.098917
0.097636
0.097636
0.098917
0.096355
0.098917
0.096355
0.098917
0.100199
0.097636
0.098917
0.098917
0.096355
0.097636
0.096355
0.098917
0.097636
0.098917
0.096355
0.098917
0.097636
0.100199
0.097636
0.098917
0.098917
0.100199
0.100199
0.098917
0.097636
0.100199
0.098917
0.098917
0.098917
0.100199
0.100199
0.097636
0.097636
0.100199
0.097636
0.096355
0.098917
0.102761
0.101480
0.100199
0.097636
0.102761
0.100199
0.097636
0.098917
0.100199
0.097636
0.098917
0.101480
0.098917
0.100199
0.097636
0.101480
0.100199
0.098917
0.100199
0.100199
0.097636
0.100199
0.101480
0.097636
0.100199
0.097636
0.100199
0.097636
0.097636
0.097636
0.097636
0.100199
0.101480
0.101480
0.102761
0.105323
0.101480
0.107886
0.101480
0.098917
0.109167
0.104042
0.107886
0.107886
0.106605
0.105323
0.107886
0.105323
0.109167
0.106605
0.106605
0.106605
0.102761
0.105323
0.104042
0.107886
0.106605
0.106605
0.105323
0.107886
0.104042
0.107886
0.106605
0.106605
0.105323
0.107886
0.110448
0.106605
0.105323
0.105323
0.106605
0.105323
0.105323
0.105323
0.106605
0.106605
0.104042
0.107886
0.105323
0.107886
0.109167
0.106605
0.106605
0.106605
0.106605
0.106605
0.106605
0.104042
0.111729
0.105323
0.107886
0.106605
0.107886
0.106605
0.106605
0.107886
0.106605
0.104042
0.106605
0.106605
0.105323
0.106605
0.105323
0.106605
0.106605
0.104042
0.107886
0.106605
0.107886
0.106605
0.104042
0.106605
0.101480
0.098917
0.100199
0.098917
0.098917
0.098917
0.102761
0.104042
0.104042
0.104042
0.105323
0.105323
0.106605
0.102761
0.105323
0.105323
0.102761
0.102761
0.105323
0.104042
0.107886
0.106605
0.101480
0.102761
0.100199
0.100199
0.098917
0.101480
0.101480
0.101480
0.101480
0.101480
0.102761
0.105323
0.105323
0.101480
0.104042
0.104042
0.102761
0.104042
0.100199
0.100199
0.104042
0.101480
0.102761
0.102761
0.101480
0.104042
0.102761
0.104042
0.104042
0.100199
0.097636
0.098917
0.097636
0.097636
0.104042
0.101480
0.101480
0.102761
0.101480
0.104042
0.100199
0.104042
0.106605
0.101480
0.104042
0.102761
0.101480
0.104042
0.101480
0.101480
0.102761
0.102761
0.105323
0.104042
0.102761
0.105323
0.104042
0.104042
0.104042
0.104042
0.102761
0.102761
0.102761
0.104042
0.102761
0.102761
0.102761
0.105323
0.104042
0.102761
0.105323
0.102761
0.101480
0.105323
0.104042
0.102761
0.105323
0.101480
0.101480
0.098917
0.100199
0.100199
0.100199
0.101480
0.102761
0.098917
0.102761
0.106605
0.104042
0.104042
0.102761
0.104042
0.102761
0.104042
0.104042
0.104042
0.104042
0.107886
0.107886
0.110448
0.110448
0.110448
0.110448
0.113010
0.110448
0.113010
0.111729
0.114292
0.116854
0.114292
0.116854
0.114292
0.114292
0.114292
0.114292
0.113010
0.114292
0.115573
0.115573
0.115573
0.113010
0.115573
0.113010
0.115573
0.113010
0.116854
0.120697
0.121979
0.123260
0.124541
0.123260
0.123260
0.121979
0.121979
0.123260
0.123260
0.121979
0.125822
0.121979
0.124541
0.124541
0.125822
0.127103
0.127103
0.125822
0.124541
0.127103
0.130947
0.129666
0.128385
0.127103
0.129666
0.129666
0.130947
0.128385
0.129666
0.128385
0.127103
0.129666
0.127103
0.130947
0.130947
0.130947
0.130947
0.130947
0.134790
0.132228
0.130947
0.132228
0.133509
0.133509
0.130947
0.133509
0.136072
0.136072
0.134790
0.134790
0.134790
0.137353
0.136072
0.136072
0.138634
0.138634
0.137353
0.139915
0.141196
0.142477
0.138634
0.139915
0.141196
0.141196
0.139915
0.141196
0.139915
0.141196
0.142477
0.141196
0.142477
0.141196
0.143759
0.145040
0.142477
0.145040
0.139915
0.141196
0.143759
0.143759
0.142477
0.143759
0.141196
0.143759
0.142477
0.142477
0.142477
0.143759
0.145040
0.143759
0.143759
0.145040
0.143759
0.143759
0.143759
0.139915
0.141196
0.141196
0.142477
0.142477
0.142477
0.142477
0.142477
0.141196
0.143759
0.141196
0.143759
0.141196
0.142477
0.145040
0.142477
0.142477
0.142477
0.145040
0.148883
0.143759
0.145040
0.146321
0.145040
0.143759
0.146321
0.145040
0.147602
0.143759
0.147602
0.145040
0.143759
0.143759
0.147602
0.148883
0.157852
0.162976
0.169382
0.175788
0.171945
0.171945
0.173226
0.173226
0.174507
0.174507
0.175788
0.178350
0.183475
0.192443
0.191162
0.192443
0.195006
0.193725
0.192443
0.189881
0.189881
0.188600
0.189881
0.188600
0.191162
0.193725
0.191162
0.188600
0.189881
0.193725
0.192443
0.192443
0.192443
0.192443
0.195006
0.196287
0.195006
0.193725
0.189881
0.189881
0.195006
0.193725
0.193725
0.192443
0.201412
0.197568
0.196287
0.198849
0.201412
0.201412
0.201412
0.201412
0.198849
0.200130
0.198849
0.198849
0.198849
0.196287
0.201412
0.197568
0.200130
0.201412
0.198849
0.203974
0.197568
0.196287
0.200130
0.202693
0.205255
0.202693
0.205255
0.203974
0.205255
0.206536
0.203974
0.212942
0.214223
0.218067
0.215505
0.214223
0.214223
0.215505
0.216786
0.211661
0.211661
0.209099
0.210380
0.207817
0.207817
0.211661
0.215505
0.219348
0.223192
0.227035
0.232160
0.232160
0.228316
0.228316
0.228316
0.223192
0.221910
0.218067
0.218067
0.214223
0.215505
0.214223
0.211661
0.212942
0.211661
0.211661
0.215505
0.214223
0.215505
0.215505
0.212942
0.216786
0.215505
0.214223
0.215505
0.214223
0.214223
0.216786
0.211661
0.216786
0.215505
0.216786
0.218067
0.218067
0.220629
0.223192
0.224473
0.229597
0.232160
0.236003
0.237285
0.236003
0.236003
0.237285
0.233441
0.233441
0.230879
0.230879
0.227035
0.228316
0.232160
0.230879
0.232160
0.230879
0.230879
0.232160
0.232160
0.232160
0.230879
0.229597
0.228316
0.229597
0.228316
0.228316
0.227035
0.227035
0.227035
0.228316
0.228316
0.229597
0.228316
0.232160
0.228316
0.230879
0.229597
0.228316
0.229597
0.232160
0.229597
0.232160
0.230879
0.230879
0.232160
0.229597
0.230879
0.232160
0.229597
0.232160
0.229597
0.230879
0.230879
0.230879
0.229597
0.229597
0.227035
0.230879
0.230879
0.233441
0.234722
0.236003
0.236003
0.238566
0.237285
0.239847
0.239847
0.238566
0.239847
0.242409
0.242409
0.244972
0.246253
0.250096
0.248815
0.247534
0.251377
0.246253
0.248815
0.256502
0.259065
0.257783
0.255221
0.256502
0.256502
0.253940
0.259065
0.265470
0.265470
0.266752
0.266752
0.270595
0.270595
0.270595
0.270595
0.268033
0.270595
0.268033
0.268033
0.266752
0.266752
0.269314
0.266752
0.269314
0.269314
0.266752
0.268033
0.270595
0.268033
0.268033
0.270595
0.269314
0.270595
0.268033
0.269314
0.271876
0.268033
0.269314
0.266752
0.268033
0.269314
0.265470
0.269314
0.268033
0.269314
0.269314
0.270595
0.269314
0.271876
0.277001
0.283407
0.282126
0.278282
0.280845
0.278282
0.277001
0.275720
0.277001
0.278282
0.275720
0.274439
0.274439
0.273158
0.273158
0.274439
0.275720
0.279563
0.283407
0.278282
0.280845
0.279563
0.280845
0.288532
0.293656
0.302625
0.309030
0.312874
0.317999
0.323123
0.329529
0.335935
0.338498
0.338498
0.337216
0.333373
0.332092
0.339779
0.357715
0.371808
0.384620
0.392307
0.401275
0.417930
0.428180
0.440992
0.456366
0.456366
0.443554
0.437148
0.425618
0.419212
0.417930
0.412806
0.414087
0.412806
0.411525
0.408962
0.403838
0.407681
0.405119
0.401275
0.399994
0.393588
0.391026
0.389745
0.387182
0.384620
0.382058
0.385901
0.391026
0.391026
0.392307
0.397432
0.399994
0.396150
0.394869
0.397432
0.394869
0.391026
0.388463
0.389745
0.383339
0.380776
0.380776
0.383339
0.391026
0.379495
0.382058
0.387182
0.385901
0.385901
0.385901
0.383339
0.387182
0.388463
0.393588
0.403838
0.406400
0.408962
0.421774
0.426899
0.421774
0.426899
0.425618
0.429461
0.432023
0.444835
0.457647
0.458928
0.455085
0.453803
0.455085
0.455085
0.455085
0.447398
0.446116
0.440992
0.442273
0.429461
0.438429
0.449960
0.449960
0.451241
0.453803
0.451241
0.449960
0.447398
0.456366
0.457647
0.446116
0.440992
0.434586
0.435867
0.430742
0.435867
0.432023
0.428180
0.428180
0.426899
0.442273
0.440992
0.444835
0.446116
0.453803
0.452522
0.457647
0.474302
0.496082
0.529393
0.540923
0.561422
0.569109
0.574234
0.565266
0.557579
0.547329
0.539642
0.531955
0.524268
0.510175
0.520425
0.507613
0.502488
0.498645
0.484552
0.480708
0.481989
0.480708
0.481989
0.478146
0.475583
0.474302
0.481989
0.473021
0.467896
0.460209
0.466615
0.474302
0.476865
0.489676
0.493520
0.457647
0.448679
0.446116
0.442273
0.442273
0.432023
0.443554
0.455085
0.471740
0.479427
0.485833
0.490958
0.497363
0.498645
0.506332
0.506332
0.499926
0.503769
0.494801
0.492239
0.492239
0.485833
0.481989
0.480708
0.480708
0.478146
0.479427
0.479427
0.479427
0.483270
0.492239
0.503769
0.512738
0.521706
0.525549
0.530674
0.524268
0.503769
0.510175
0.514019
0.503769
0.506332
0.512738
0.529393
0.529393
0.519143
0.520425
0.533236
0.528112
0.520425
0.514019
0.515300
0.515300
0.501207
0.522987
0.525549
0.525549
0.549892
0.548611
0.543486
0.540923
0.542205
0.540923
0.540923
0.539642
0.538361
0.535799
0.537080
0.538361
0.546048
0.556298
0.575515
0.594733
0.620356
0.629325
0.625481
0.639574
0.640855
0.615232
0.603701
0.601139
0.598576
0.593452
0.593452
0.593452
0.593452
0.593452
0.590889
0.590889
0.593452
0.593452
0.589608
0.587046
0.588327
0.585765
0.584483
0.579359
0.558860
0.563985
0.569109
0.575515
0.583202
0.592171
0.598576
0.604982
0.606263
0.612669
0.612669
0.615232
0.624200
0.626762
0.634449
0.637012
0.639574
0.631887
0.638293
0.649823
0.666479
0.683134
0.707476
0.708758
0.708758
0.702352
0.694665
0.685696
0.667760
0.648542
0.631887
0.631887
0.626762
0.628043
0.630606
0.624200
0.624200
0.629325
0.624200
0.616513
0.620356
0.619075
0.626762
0.612669
0.617794
0.620356
0.624200
0.622919
0.625481
0.619075
0.608826
0.610107
0.621638
0.642136
0.665198
0.684415
0.695946
0.717726
0.735662
0.744631
0.738225
0.729256
0.740787
0.744631
0.743349
0.744631
0.744631
0.743349
0.745912
0.747193
0.743349
0.736943
0.733100
0.729256
0.730538
0.731819
0.740787
0.749755
0.766411
0.795878
0.797159
0.801002
0.777941
0.784347
0.794596
0.795878
0.789472
0.801002
0.774098
0.756161
0.752318
0.747193
0.681853
0.715164
0.734381
0.763848
0.811252
0.880435
0.948338
0.981648
1.003428
1.007272
1.005991
0.982929
0.962431
0.941932
0.920152
0.900934
0.879154
0.863780
0.850968
0.840719
0.835594
0.839438
0.836875
0.834313
0.836875
0.842000
0.853531
0.862499
0.867624
0.870186
0.881716
0.879154
0.868905
0.859936
0.845844
0.853531
0.891966
0.945775
0.985492
1.034177
1.023996
1.044495
1.061150
1.058588
1.031683
1.025277
1.023996
1.015028
0.999654
0.984280
0.994529
1.022715
1.075243
1.103429
1.100867
1.067556
1.049620
1.044495
1.062431
1.099586
1.103429
1.132896
1.195674
1.209767
1.272545
1.285356
1.339166
1.376320
1.375039
1.369914
1.373757
1.423723
1.480095
1.493006
1.535285
1.562190
1.555784
1.596781
1.591657
1.626248
1.619843
1.583970
1.603187
1.581407
1.567314
1.558346
1.542972
1.536566
1.549378
1.551940
1.566033
1.566033
1.572439
1.548097
1.532722
1.540410
1.532722
1.531441
1.530160
1.557065
1.546815
1.549378
1.546815
1.550659
1.546815
1.553221
1.551940
1.553221
1.542972
1.545534
1.549378
1.539128
1.545534
1.564752
1.595500
1.612155
1.640341
1.655715
1.665965
1.662121
1.659559
1.696713
1.740273
1.792801
1.851735
1.896577
1.937574
1.928805
1.941617
1.942898
1.922400
1.907025
1.892932
1.863465
1.849372
1.841685
1.830155
1.822468
1.813499
1.813499
1.813499
1.805812
1.807094
1.817343
1.833998
1.855778
1.899338
1.942898
1.972365
1.974928
1.960835
1.960835
1.951867
1.930087
1.895495
1.894214
1.881402
1.868590
1.860903
1.864747
1.869871
1.877558
1.873715
1.871152
1.848091
1.844248
1.837842
1.826311
1.849372
1.831436
1.813499
1.821187
1.821187
1.828874
1.827592
1.840404
1.839123
1.833998
1.841685
1.845529
1.845529
1.840404
1.858341
1.862184
1.846810
1.831436
1.835279
1.835279
1.837842
1.846810
1.840404
1.842967
1.844248
1.842967
1.860903
1.946742
2.062048
2.100483
2.110733
2.123544
2.129950
2.186322
2.178635
2.145324
2.114576
2.140200
2.174791
2.191447
2.209383
2.174791
2.105608
2.050517
2.069735
2.105608
2.182478
2.201696
2.222195
2.249099
2.231163
2.233726
2.268317
2.282410
2.222195
2.315721
2.448963
2.406310
2.317909
2.296129
2.261537
1.960461
2.329440
2.474213
2.463963
2.440902
2.438340
2.401186
2.466526
2.417841
2.328159
2.292286
2.210290
2.280755
2.252569
2.261537
2.241039
2.243601
2.276911
2.325596
2.374281
2.440902
2.469088
2.656140
2.790663
2.770164
2.401186
2.558770
2.410154
2.777852
2.689451
2.836786
2.679201
2.889314
2.923906
2.986830
3.054733
3.016298
2.909960
2.957363
2.879212
2.858713
2.851026
2.813872
2.784405
2.774155
2.765187
2.729314
2.707534
2.715221
2.721627
2.738282
2.719064
2.719064
2.711378
2.707534
2.696003
2.688316
2.689598
2.687035
2.683192
2.670380
2.651162
2.505108
2.537138
2.576854
2.646038
2.785686
2.972738
3.163633
3.272533
3.339154
3.358372
3.334029
3.298156
3.244347
3.180288
3.120073
3.075232
3.030391
2.949677
2.924053
2.885617
2.843339
2.829246
2.815153
2.801060
2.789529
2.765187
2.757500
2.751094
2.758781
2.744688
2.715221
2.730595
2.710096
2.701128
2.694722
2.710096
2.717783
2.722908
2.719064
2.717783
2.702409
2.704972
2.685754
2.662693
2.663974
2.625539
2.599915
2.593509
2.617852
2.643475
2.742126
2.857432
2.963769
3.022703
3.062420
3.104699
3.129041
3.120073
3.102136
3.086762
3.015016
2.994518
2.972738
2.945833
2.924053
2.904835
2.903554
2.885617
2.892024
2.879212
2.892024
2.875368
2.861275
2.856151
2.839495
2.849745
2.857432
2.853588
2.852307
2.857432
2.874087
2.877930
2.886899
2.885617
2.890742
2.899710
2.903554
2.907398
2.911241
2.900992
2.899710
2.895867
2.895867
2.900992
2.903554
2.902273
2.895867
2.893305
2.883055
2.868962
2.867681
2.867681
2.854869
2.824121
2.827965
2.830527
2.834371
2.838214
2.830527
2.834371
2.839495
2.831808
2.844620
2.831808
2.821559
2.813872
2.830527
2.824121
2.822840
2.830527
2.822840
2.824121
2.827965
2.830527
2.831808
2.830527
2.834371
2.829246
2.815153
2.811309
2.816434
2.806185
2.802341
2.808747
2.807466
2.815153
2.812591
2.829246
2.838214
2.849745
2.852307
2.862556
2.886899
2.875368
2.879212
2.877930
2.858713
2.857432
2.854869
2.842057
2.829246
2.824121
2.830527
2.822840
2.816434
2.807466
2.812591
2.807466
2.812591
2.801060
2.813872
2.835652
2.890742
3.013735
3.184132
3.373746
3.465991
3.535084
3.587612
3.567113
3.619642
3.594018
3.591456
3.576082
3.568395
3.550458
3.532522
3.563270
3.536365
3.479993
3.467182
3.423622
3.389030
3.340345
3.317284
3.305753
3.254506
3.239132
3.269880
3.273724
3.259631
3.251944
3.245538
3.217352
3.223758
3.214790
3.207103
3.204540
3.173792
3.162261
3.144325
3.146887
3.186604
3.244257
3.390311
3.611955
3.836160
4.010401
4.163600
4.257126
4.199473
4.007297
3.976548
3.900959
3.856118
3.858680
3.842025
3.790778
3.703658
3.671628
3.675472
3.687003
3.608851
3.601164
3.548635
3.542230
3.528137
3.534543
3.599883
3.672910
3.757467
3.834338
3.870211
3.884304
3.863805
3.903522
3.854837
3.817683
3.767717
3.721594
3.666504
3.621663
3.585790
3.594758
3.588352
3.593477
3.676753
3.848431
3.949644
3.995766
4.075199
4.085449
4.070075
4.036764
3.984236
3.945800
3.908646
3.870211
3.820245
3.770279
3.725438
3.713907
3.724157
3.703658
3.715189
3.748499
3.876617
4.043169
4.135415
4.240471
4.301968
4.294281
4.234065
4.204598
4.157195
4.052138
3.976548
3.936832
3.880460
3.852274
3.838181
3.831775
3.826651
3.818964
3.788216
3.827932
3.871492
4.025233
4.172569
4.358339
4.423679
4.480700
4.508885
4.519135
4.534509
4.584475
4.670314
4.654940
4.654940
4.557570
4.555008
4.588318
4.451232
4.426890
4.321834
4.187310
4.091222
4.004102
4.000258
3.977197
3.929794
3.899045
3.874054
3.857399
3.858680
3.866367
3.888147
3.971424
4.104666
4.266095
4.349371
4.372432
4.360901
4.378838
4.432648
4.556289
4.653658
4.665189
4.667751
4.643409
4.622910
4.505042
4.367956
4.282117
4.157843
4.055349
3.996415
3.924669
3.911208
3.850993
3.836900
3.811277
3.797184
3.847150
3.835619
3.829213
3.792059
3.874054
4.126446
4.385244
4.567171
4.798431
4.792026
4.747184
4.777933
4.747184
4.721561
4.607536
4.533228
4.393579
4.323115
4.239839
4.123251
4.048943
3.936199
3.842674
3.731844
3.711345
3.639599
3.628068
3.666504
3.853555
4.150789
4.326310
4.389088
4.344246
4.358339
4.454427
4.449951
4.492230
4.432015
4.350019
4.262899
4.153999
4.045100
3.902889
3.790778
3.688284
3.663941
3.598601
3.575540
3.592196
3.519168
3.548635
3.511481
3.544792
3.629350
3.827932
3.998328
4.039326
4.062387
4.070075
4.099542
4.178975
4.319904
4.222535
3.995766
4.104666
3.988079
3.963737
3.889429
3.666504
3.613976
3.529418
3.443579
3.435892
3.423080
3.387749
3.392873
3.406966
3.426184
3.386467
3.372375
3.296785
3.417216
3.695231
3.859222
3.939936
3.989360
4.048295
3.972705
3.971424
3.998328
4.013703
4.170006
4.178975
4.148226
4.075199
3.958612
3.891991
3.842025
3.792059
3.602445
3.581946
3.599883
3.548635
3.524293
3.499951
3.674191
3.770279
3.716470
3.729281
3.812558
3.849712
3.986798
4.004735
3.977830
3.872773
3.793340
3.788216
3.667785
3.612694
3.499951
3.501232
3.443579
3.420518
3.522272
3.473588
3.483837
3.504336
3.478712
3.538928
3.465900
3.532522
3.677294
3.769539
3.787476
3.679857
3.750322
3.790038
3.731104
3.861784
3.713167
3.684982
3.701637
3.665764
3.608111
3.564551
3.623485
3.651671
3.742635
3.710605
3.635016
3.670889
3.792600
4.015525
4.162319
4.104666
3.881742
4.038045
4.023952
3.940675
3.830494
3.833057
3.744656
3.654973
3.565291
3.521731
3.514044
3.569134
3.740812
3.770279
3.822807
3.779247
3.738250
3.868930
3.809996
3.752343
3.738250
3.708783
3.704939
3.619100
3.613976
3.621663
3.557604
3.551198
3.508919
3.642161
3.829213
3.926583
3.999610
3.980392
4.073918
4.114916
4.105947
4.070075
3.970143
4.011140
3.994485
3.889429
3.815120
3.701096
3.724157
3.619100
3.564010
3.535824
3.535824
3.547354
3.523012
3.564010
3.549917
3.590914
3.653692
3.811277
4.044451
4.025233
3.985517
3.953487
3.895834
3.950925
3.833057
3.802309
3.774122
3.672910
3.719032
3.633193
3.593477
3.530699
3.514044
3.579384
3.575540
3.684440
3.880460
3.939394
3.986798
4.104666
4.036764
3.973986
3.986798
3.913771
3.849712
3.702377
3.707501
3.633193
3.558885
3.494826
3.415393
3.495368
3.477431
3.417216
3.438996
3.403123
3.526116
3.660639
3.775945
3.861784
4.029618
4.057263
3.938113
3.876617
3.990641
3.872773
3.845869
3.857399
3.802309
3.731844
3.592196
3.542230
3.438454
3.361584
3.271162
3.310878
3.330096
3.290379
3.263474
3.327533
3.351876
3.440277
3.627329
3.778507
3.792600
3.650390
3.596581
3.596581
3.614517
3.711886
3.732385
3.729823
3.750322
3.687544
3.560708
3.504336
3.515866
3.387749
3.053361
3.364687
3.253225
3.514585
3.741354
3.638859
3.658077
3.677294
3.626048
3.572238
3.652952
3.638859
3.629891
3.665764
3.699075
3.354438
3.348032
3.436433
3.412091
3.574800
3.978371
4.125165
4.022671
3.993204
3.956050
3.776685
3.590914
3.315461
3.841285
3.825911
3.920718
3.544792
3.434611
3.383364
3.599143
3.453089
3.673451
4.002714
4.191786
4.252002
4.285312
4.307092
4.401899
4.377557
4.319904
4.366026
4.308373
4.200755
4.207160
4.130290
4.094417
3.993204
3.975267
3.970143
3.968862
3.925302
3.920177
3.940675
3.965018
3.950925
3.940675
3.953487
3.953487
3.979111
4.159757
4.300686
4.358339
4.414711
4.561414
4.575507
4.514010
4.479418
4.428171
4.374362
4.284679
4.228308
4.193716
4.038693
4.096346
4.045100
4.191154
4.197559
4.178342
4.235995
4.237276
4.223183
4.209090
4.229589
4.197559
4.047662
4.055349
4.151437
4.225746
4.225746
4.175779
4.072004
4.133501
3.983603
3.941324
3.959261
3.913138
3.945800
4.034202
4.227659
4.336559
4.571014
4.525541
4.505042
4.552445
4.561414
4.537071
4.530665
4.603693
4.517854
4.467888
4.406391
4.394861
4.238557
4.107877
4.034850
3.824737
3.670347
3.938113
4.257126
4.454427
4.406391
4.328239
4.396142
4.512729
4.662627
4.865053
5.000857
4.917264
4.960824
4.924951
4.930076
4.667435
4.862174
4.866017
4.876266
4.730212
4.526505
4.566222
4.627718
4.646935
4.526505
4.482945
4.391982
4.394861
4.315428
4.405110
4.428171
4.473012
4.608817
4.729248
4.790744
4.836867
4.813806
4.835586
4.844554
4.803556
4.849679
4.829180
4.907331
4.663908
4.534509
4.496074
4.517854
4.604974
4.763840
4.926549
5.051787
5.104316
5.237558
5.208091
5.252933
5.161969
5.065880
5.004384
4.699464
4.931357
4.992854
4.949294
4.983885
4.959543
4.863454
4.872423
4.885234
4.771210
4.702026
4.848081
4.631562
4.604657
4.960824
5.026164
5.439984
5.622750
5.714994
5.503600
5.549723
5.543317
5.517693
5.367795
5.244802
5.310143
5.266582
5.178181
5.144871
5.084655
5.158964
5.210211
5.153839
4.946289
4.789985
4.972354
5.228590
5.459202
5.706026
5.684246
5.704745
5.826457
5.695777
5.622750
5.627874
5.640686
5.574065
5.498476
5.517693
5.663747
5.661185
5.634280
5.615063
5.611219
5.525380
5.531786
5.494632
5.743180
5.914858
5.962971
5.902756
5.376192
5.082093
5.590720
5.836706
5.755992
5.681684
5.681684
5.820051
5.704745
5.634280
5.570221
5.521537
5.466446
5.438260
5.384451
5.258895
5.330641
5.256333
5.425448
5.240959
5.216617
5.379326
5.403668
5.325517
5.379326
5.477977
5.581752
5.690652
5.823895
5.877704
5.900765
5.911015
5.984751
5.846384
5.831010
5.800262
5.824604
5.870727
5.714423
5.728516
5.613210
5.628584
5.551713
5.609366
5.599117
5.564525
5.692643
5.768232
5.811792
5.841259
5.656770
5.728516
5.911724
5.916849
5.837416
5.757983
6.076996
5.943754
5.737484
5.839978
5.719548
5.481249
5.688799
5.746452
5.861758
5.896350
5.801543
5.788731
5.756702
5.831010
5.779763
5.795137
5.757983
5.568369
5.459469
5.524809
5.791294
5.810511
5.875851
5.914287
5.842541
5.847665
5.536339
5.496623
5.336476
5.356265
5.371639
5.527943
5.625312
5.752149
5.928951
6.001407
5.952722
6.068028
6.228175
6.355011
6.535657
6.419804
6.280156
6.378806
6.382650
6.319872
6.178943
6.350620
6.737535
6.636323
6.732411
6.741379
6.481300
6.450552
6.668352
6.755472
6.651697
6.682445
6.491550
6.538953
6.500518
6.476176
6.451833
6.488987
6.437740
6.408273
6.401867
6.449271
6.655540
6.696538
6.969429
7.084384
7.127944
7.147162
7.188159
7.065166
6.773058
6.327209
6.232752
5.781778
5.618335
6.413946
6.422366
6.758035
6.755472
6.362151
6.171256
6.195598
6.272469
6.277593
6.536391
6.767003
6.674758
7.051424
7.300903
7.385461
7.429021
7.406819
7.409382
7.437568
7.533656
7.560561
7.619495
7.613089
7.705334
7.836014
7.832170
7.938508
8.056314
8.183150
8.216460
8.263864
8.266426
8.349703
8.443229
8.352162
8.282979
8.124113
8.309884
8.240700
8.202265
8.193296
8.161267
8.074147
8.166392
8.199702
8.204827
8.393160
8.459782
8.540496
8.764702
8.924849
9.223973
9.247035
9.371309
9.372590
9.350810
9.285470
9.234223
9.216287
9.209881
9.212443
9.189382
9.174007
9.168883
9.153509
9.157352
9.162477
9.149665
9.190663
9.211162
9.235504
9.330311
9.458429
9.652217
9.670154
9.650936
9.586877
9.682965
9.745743
9.738056
9.626594
9.635562
9.644529
9.640686
9.603532
9.517694
9.552285
9.575346
9.620188
9.540754
9.603532
9.900765
9.868735
9.968668
10.011636
10.107724
10.044946
9.978325
10.051353
10.070570
10.120536
10.253778
10.166658
9.851488
10.009073
10.143597
10.203812
10.151284
9.987293
9.895048
9.919391
10.005230
10.082100
10.511294
10.548883
10.365675
10.369518
10.464326
10.546321
10.620629
10.821774
11.101070
11.543406
11.850064
11.092889
10.819999
10.442876
10.644972
10.782058
10.849960
10.892239
10.903769
10.911456
10.892239
10.902488
10.942204
11.120618
11.244892
11.315357
11.329450
11.357635
11.342261
11.342261
11.320481
11.319201
11.297421
11.299983
11.588247
11.456743
11.369623
11.652763
12.093488
11.949835
12.357249
12.398247
12.471273
12.398519
12.647067
12.673972
12.649630
12.644505
12.644505
12.641942
12.609913
12.653473
12.677815
12.689346
12.681659
12.714970
12.759810
12.864867
12.955831
13.102497
13.142214
13.169119
12.607964
12.688678
12.856511
12.383758
12.233247
13.103166
12.988473
13.130683
13.006410
13.201148
13.202429
13.295955
13.421511
13.421511
13.401011
13.499662
13.629751
13.650250
13.701498
13.773244
13.765556
13.819366
13.784774
14.084569
14.422338
14.383904
14.228881
14.319844
14.292940
14.135355
14.005956
14.070015
13.950866
13.962396
14.035423
13.947021
13.811217
14.009800
14.337781
14.301908
14.231443
14.210944
14.219913
14.121262
14.068734
13.680537
13.793281
14.324969
13.325651
13.916736
14.055102
14.291658
14.162260
13.913712
13.406365
13.705341
13.829616
13.850114
13.646407
13.824491
13.911611
13.783493
13.953890
13.963677
13.981614
13.948303
13.811217
13.872714
13.870152
14.027736
13.745877
13.911149
13.809936
14.039267
14.000832
13.873995
13.889369
14.041829
13.716410
13.871432
13.756126
13.698474
13.640821
13.671569
13.570356
13.589574
13.547295
13.645946
13.657476
13.510140
13.579324
13.680537
14.072577
13.944460
14.037986
13.991863
13.712566
13.808655
13.765095
13.579324
13.680537
13.551138
13.515265
13.478111
13.426864
13.451668
13.450387
13.491385
13.508039
13.431170
13.446544
13.218493
13.176215
13.192870
13.368392
13.465761
13.615659
13.670750
13.596441
13.713028
13.522133
13.523414
13.497790
13.531101
13.452950
13.468324
13.464479
13.501634
13.531101
13.622065
13.683561
13.704060
13.748901
13.668187
13.486259
13.222338
12.862327
13.279300
12.806545
12.604119
12.527249
12.322261
12.474108
12.771341
13.053200
13.313891
12.920570
13.126840
13.467633
13.523414
13.461918
13.438856
13.440138
13.728402
13.650250
13.415795
13.370954
13.410670
13.411952
13.579785
13.482416
13.427326
13.370954
13.424764
13.441419
13.415795
13.390172
13.346612
13.295364
13.206964
13.186464
13.142904
13.194152
13.192870
13.178778
13.218493
13.256929
13.309458
13.409389
13.520852
13.482416
13.415795
13.388890
13.367110
13.319707
13.296646
13.314582
13.269741
13.288959
13.254367
13.482416
13.536225
13.450387
13.468324
13.604128
13.666905
13.710465
13.747620
13.711747
13.687405
13.660500
13.673311
13.689967
13.687405
13.622065
13.634876
13.579785
13.385047
13.287678
13.271022
13.436294
13.513165
13.331238
13.419639
13.511884
13.696373
13.985919
14.105887
14.091795
14.072577
14.125106
14.154572
14.155854
14.135355
14.072577
14.163541
14.137918
14.237849
14.232724
14.168666
14.208382
14.121262
14.073858
14.159698
14.116138
14.143042
13.925241
14.445399
14.291658
14.257067
14.289096
14.246818
14.310876
14.021330
13.825310
14.109732
14.128949
14.162260
14.349312
14.112294
14.180196
14.149447
14.066172
14.062327
14.031580
14.025174
13.973927
13.953428
13.949584
14.012362
14.168666
14.309595
14.381341
14.371092
14.322407
14.283972
14.258348
14.227600
14.191727
14.221193
14.054641
14.246818
14.190446
14.159698
14.195570
14.214787
14.280128
14.418495
14.433869
14.364686
14.259629
14.273722
14.205820
13.675412
14.236567
14.285253
14.076421
13.911149
14.128949
14.052078
13.662601
13.674131
13.690786
13.761251
13.914992
13.959834
13.862464
13.543451
13.398678
13.376079
13.332519
13.296646
13.560568
13.714310
13.871894
13.791180
13.704060
13.788617
13.748901
13.473448
13.764276
13.875737
13.820647
13.856520
13.873176
13.973107
14.102044
14.123824
14.164822
14.153292
14.127667
13.865026
14.127667
14.191727
14.184040
14.035423
13.958552
13.927804
13.453769
13.832177
13.677155
13.446544
13.390172
13.752745
13.128812
12.822610
13.609843
14.111474
14.373653
14.207101
13.525515
13.812498
13.706161
13.806092
13.378180
13.069878
13.145467
13.614378
13.479854
12.948166
13.002565
13.000003
12.987191
12.720707
13.121716
13.148620
12.919290
12.985910
13.035876
13.025627
12.846262
12.629744
13.256239
13.190899
13.392043
13.377951
13.219085
13.357451
12.588745
13.302361
13.380513
13.417667
13.447134
13.439447
13.425354
13.388200
13.403574
13.412542
13.352327
13.381794
13.146057
13.175525
13.290831
13.476601
13.648970
13.556725
13.419639
13.324832
13.299208
13.286396
13.301770
13.296646
13.300489
13.305614
13.285115
13.265898
13.194152
13.194152
13.141623
13.109594
13.075002
13.075002
13.051941
13.078846
13.045535
13.017349
13.062190
13.071158
13.081408
13.165966
13.253086
13.324832
13.344049
13.549038
13.678436
13.464479
13.209526
13.118562
13.051941
13.081408
13.183902
13.250524
13.372235
13.294084
13.174934
13.151873
13.306895
13.363267
13.556725
13.483698
13.091658
13.260773
13.281272
13.197995
13.036567
13.091658
13.037848
12.981476
12.972508
13.067315
13.124968
13.060909
13.124968
13.203120
12.823892
12.319698
12.416455
12.867430
12.325492
12.923801
13.108291
13.608562
13.638720
13.496510
13.819366
13.336362
13.187746
12.873857
13.570127
14.052540
14.104607
14.046954
14.044392
14.049516
13.727941
13.528077
13.510140
13.475549
13.466580
13.888088
13.612635
13.762532
13.984176
14.103326
13.984176
13.701036
13.963677
13.806092
13.840684
13.597260
13.617760
13.537045
13.493485
13.325651
13.363267
13.578505
13.546475
13.204401
13.304333
13.340206
13.245399
13.214650
13.055784
12.927667
12.969255
12.888541
12.666898
12.873167
13.083280
12.896228
13.047407
12.921851
12.320980
11.824552
12.463587
12.890491
12.899459
12.849493
12.918676
12.781590
13.000671
13.117871
13.003847
13.183211
13.016659
12.998722
12.957725
12.755299
12.682272
12.923133
12.937225
12.673304
12.719425
12.636149
12.873167
12.906477
12.762985
13.073030
12.832170
12.926976
12.467033
12.646399
12.889822
12.879573
12.825764
12.777079
12.756579
12.778359
12.810390
12.768110
12.792453
12.793734
12.778359
12.796296
12.774516
12.736081
12.843699
12.788610
12.665616
12.652804
12.661773
12.894947
12.730956
12.868042
12.852668
12.788610
12.757861
12.705333
12.666898
12.633587
12.404256
12.549698
12.554822
12.508700
12.503575
12.483076
12.488201
12.433110
12.417736
12.315242
12.328054
12.310118
12.343428
12.301149
12.352396
12.452328
12.290900
12.421580
12.594539
12.298587
12.247340
12.379301
12.456172
12.535604
12.576602
12.593258
12.550979
12.506138
12.479233
12.453609
12.488201
12.538167
12.520230
12.488201
12.452328
12.402362
12.348553
12.297306
12.235809
11.909109
11.908837
11.861434
11.843497
11.819155
11.824280
11.884495
11.928055
11.934461
12.004926
12.097170
12.168916
12.257318
12.243224
12.325219
12.175322
12.234256
12.120232
12.097170
12.115107
11.972896
11.714098
12.004926
12.007487
11.391242
10.837934
11.604903
12.003806
11.708974
12.086921
11.319496
11.609203
11.689918
11.815473
11.746289
11.638670
10.819999
11.406321
11.604903
11.907718
11.874407
11.832129
11.789849
11.751414
11.723228
11.632264
11.679668
11.797536
11.632264
11.481086
11.710417
11.723228
11.733478
11.782163
11.820598
11.833409
11.824441
11.800098
11.620734
11.560518
11.811629
11.806504
11.929498
11.857752
11.797536
11.695043
11.705292
11.773194
11.716823
11.670700
11.282503
11.383717
11.262005
11.300440
11.436245
11.912842
12.015336
12.135606
12.049767
12.109982
12.099732
11.906275
11.318214
10.818717
11.604903
12.083239
12.343156
12.215038
11.755095
11.464269
11.464269
11.459144
11.424714
11.192821
11.286346
11.301721
11.309408
11.865438
11.431120
11.401652
11.478523
11.607923
11.825723
12.078115
12.183009
12.277816
12.226569
12.194539
12.099732
11.998520
12.156104
11.433520
10.817436
10.852852
11.602341
11.932060
11.907718
11.916686
11.948715
12.120232
12.084358
11.429677
10.817436
10.527433
11.575436
12.103738
12.413621
12.088202
12.168916
12.514833
12.372895
12.152533
11.832238
11.963927
12.077952
11.530890
11.963927
11.862715
11.775595
11.775595
11.808906
11.869121
12.012612
12.106138
11.885776
11.716660
11.874246
12.021581
11.931898
11.675663
12.022861
11.846060
11.366899
10.817436
10.317320
10.516854
11.002420
11.347386
11.412726
10.652988
10.316039
10.655221
11.103633
11.531876
11.820598
11.748852
11.811629
11.812910
11.821878
11.815473
11.848783
11.865438
11.947434
11.985707
12.070266
12.001081
12.204789
12.102295
11.685912
11.441208
11.668138
11.593829
11.679668
11.637389
11.620734
11.651483
11.557957
11.505428
11.525927
11.504147
11.446494
11.405497
11.387560
11.347843
11.372186
11.027549
10.932742
11.047591
10.879757
11.262829
11.437069
11.519064
11.668138
11.628421
11.659169
11.742446
11.734758
11.883375
11.884656
11.784724
11.902593
11.851346
11.834690
11.734758
11.606641
11.673263
11.609203
11.650201
11.589986
11.482367
11.437526
10.948116
10.573556
11.604903
11.805223
11.880813
11.732197
11.807786
11.933341
11.846221
11.982026
12.058735
12.040798
12.065141
12.003644
12.021581
12.134324
11.856309
11.729472
11.761501
11.730754
11.620572
11.683350
11.780720
11.657726
11.819155
11.551389
11.747409
11.797375
11.757658
11.887057
11.851184
11.700006
11.642352
11.729472
11.840935
11.928055
12.035673
12.068984
12.117669
12.084358
12.035673
11.983146
11.995957
11.980583
11.937023
11.916524
11.897306
11.794812
11.666695
11.610323
11.660289
11.697443
11.701286
11.701286
11.697443
11.724348
11.913961
11.835810
12.002363
12.184290
11.998520
12.039517
11.898587
11.919086
11.398929
12.101175
12.595548
12.763654
12.720094
12.694470
12.673972
12.499732
12.108973
12.192249
11.906547
12.107420
12.006207
11.983146
11.835810
11.782001
11.698724
11.907556
11.966490
12.131762
12.245787
12.322658
12.330344
12.323938
12.293190
12.256036
12.203507
12.161229
12.086921
12.045923
12.013893
11.979301
11.981864
11.461706
11.410460
11.914124
11.796255
11.933341
11.634827
11.833409
11.701448
11.746289
10.819999
11.558781
11.077515
11.712978
11.770632
11.803943
11.256880
11.829566
11.554112
11.733478
11.460587
11.540020
11.591267
11.586143
11.414465
11.534895
11.595110
11.572049
11.496460
11.525927
11.520802
11.455462
11.482367
11.419589
11.454181
11.392685
11.537457
11.578455
11.647638
11.674543
11.692480
11.670700
11.719384
11.689918
11.582298
11.542583
11.496460
11.434963
11.424714
11.438807
11.417027
11.414465
11.396528
11.396528
11.399091
11.402934
11.405497
11.449057
11.506709
11.588704
11.821878
11.903874
11.942309
11.929498
11.901312
11.853909
11.688637
11.059579
11.789849
11.560518
11.707854
11.692480
11.581017
11.532332
11.538738
11.534895
11.516958
11.424714
11.529771
11.543863
11.527208
11.587423
11.611766
11.607923
11.577174
11.540020
11.527208
11.520802
11.520802
11.551551
11.527208
11.326063
11.392685
11.305565
11.059579
10.817436
11.581841
11.830847
11.638670
11.506709
11.506709
11.431120
11.223569
11.092889
11.082640
11.209476
11.297877
11.387560
11.418308
11.516958
11.538738
11.540020
11.532332
11.519521
11.533614
11.573331
11.592548
11.675824
11.586143
11.583580
11.756538
11.647638
11.666857
11.659169
11.537457
11.541301
10.991676
11.441369
11.464431
11.354249
11.118513
11.408058
11.223569
10.850747
10.720891
11.490878
11.513115
11.529771
11.501584
11.490054
11.469555
11.464431
11.483648
11.395247
11.431120
11.698886
11.971776
12.175322
12.129200
12.081796
12.053610
11.993395
11.917806
11.980583
11.794812
11.793531
11.671820
11.471956
11.319496
11.329906
11.285066
11.146699
11.470837
11.413183
11.377311
11.406777
11.336312
11.425995
11.454181
11.515677
10.949397
10.697830
11.580561
11.770632
11.700167
11.935904
11.994838
12.093327
12.072827
12.010050
11.935741
11.329745
11.697604
11.351686
11.229975
11.318377
11.099295
11.115951
11.201789
11.174885
11.132606
10.873808
11.020686
10.781106
10.317320
10.547603
10.961422
11.435787
11.180834
11.288452
11.398634
11.333294
11.278203
11.120618
11.093714
11.091151
11.080902
11.038623
11.002749
10.945097
10.923317
11.123180
11.306389
11.273078
11.373010
11.419132
11.384541
11.365323
11.340981
10.592773
10.317320
11.095946
11.317920
11.189801
11.221831
11.200051
11.159054
11.156491
11.112931
11.102682
11.088589
11.028374
11.087308
11.144960
11.162897
11.159054
11.169303
11.189801
11.385821
11.476786
11.278660
11.411902
11.314532
11.326063
11.340157
11.323501
11.315814
11.326063
11.319657
11.332469
11.169760
11.191540
11.040360
11.041642
11.241506
11.259442
11.114669
10.992957
10.913525
10.626084
10.692705
10.881038
11.005312
11.083464
11.079620
11.144960
11.232080
11.182115
11.162897
10.398034
10.742341
10.884552
10.624473
10.684689
10.615504
10.738498
10.767964
10.806400
10.738498
10.737216
10.684689
10.618067
10.719280
10.726967
10.545040
10.670595
10.638566
10.573226
10.534790
10.520698
10.532228
10.561695
10.584756
10.536072
10.418203
10.419484
10.383612
10.470732
10.493793
10.465607
10.425890
10.460483
10.443827
10.616786
10.812806
10.849960
10.847398
10.839710
10.833304
10.853804
10.958860
11.096275
11.156491
11.248735
11.406321
11.429381
11.415289
11.260266
11.256423
11.215425
11.202614
11.174428
11.296140
11.311514
11.239768
10.492842
11.200051
11.209020
11.157772
11.066809
11.215425
11.308951
11.346106
11.355074
11.362761
11.353792
11.115494
11.246174
11.116775
11.016843
11.016843
10.909224
11.025811
10.997625
10.969440
10.965596
10.901537
10.883600
10.518465
10.939972
10.677331
10.623522
10.389066
10.015914
10.432297
10.776933
10.766684
10.794869
10.767964
10.758996
10.733373
10.728249
10.735935
10.728249
10.709030
10.707749
10.701344
10.660346
10.318272
10.569383
10.400267
10.392580
10.419484
10.383612
10.388737
10.346457
10.433578
10.022320
10.236277
10.301617
10.297772
10.222183
10.201684
10.199122
10.205528
10.209372
10.204247
10.210652
10.255494
10.320834
10.365675
10.397704
10.423328
10.422047
10.428452
10.413078
10.325958
10.347738
10.336208
10.188872
10.269587
10.240120
10.281117
10.199122
10.132501
10.142751
10.114565
10.109440
10.122252
10.219621
10.065880
9.814769
9.315956
9.249928
9.878985
10.087817
10.248653
10.479265
10.840992
11.019075
11.151366
11.050154
11.064246
11.045029
11.112931
10.781106
10.942534
11.075777
11.100120
10.890006
10.814417
10.884882
11.153929
11.020686
10.686299
10.965596
10.914349
10.843884
10.832354
10.777263
10.777263
10.746514
10.726016
10.717048
10.709360
10.701674
10.679893
10.669644
10.649145
10.608148
10.582524
10.620959
10.704236
10.799043
10.913068
10.925879
10.919474
10.924598
10.863102
10.829791
10.788794
10.736265
10.705517
10.696548
10.654270
10.605585
10.532557
10.376254
10.345177
10.383612
10.460483
10.451514
10.332364
10.214497
10.167092
10.118408
10.074848
10.078691
10.090222
10.071005
10.062037
10.073566
10.168374
9.816051
9.820741
9.916828
9.953982
9.996262
10.084662
10.121817
10.201250
10.123098
9.829708
10.387020
10.536918
10.653940
10.691094
10.751309
10.853804
10.719280
10.569383
10.429734
10.359269
10.483543
10.478418
10.450233
10.044100
10.086378
10.181186
10.197841
10.178623
9.831425
9.622158
10.208937
10.217905
10.189719
10.237123
10.219186
10.249934
10.279402
10.212780
10.196125
10.169220
10.052633
10.060320
9.946296
9.936047
9.884799
9.822021
9.723371
9.696466
9.722090
9.665718
9.608065
9.569630
9.537601
9.518382
9.518382
9.501727
9.506852
9.429981
9.420324
9.507443
9.469008
9.429292
9.447228
9.422886
9.439542
9.384451
9.379326
9.320392
9.357546
9.333204
9.243522
9.210211
9.221742
9.257614
9.235834
9.215336
9.199962
9.169213
9.092342
9.052626
9.069282
9.078250
9.068000
9.000098
8.923227
8.995924
8.829371
8.673067
8.833215
8.797341
8.767875
8.733283
8.656412
8.646163
8.707660
8.769156
8.723033
8.643600
8.592354
8.644881
8.614134
8.648726
8.589791
8.505234
8.452705
8.437331
8.468750
8.417502
8.332945
8.307322
8.295791
8.298353
8.398285
8.274011
8.151018
8.101052
8.118988
7.975497
7.871721
7.760362
7.738582
7.783422
7.807765
7.809046
7.837232
7.825702
7.803922
7.788548
7.768049
7.747550
7.770611
7.794953
7.820577
7.912821
7.969193
8.090905
8.243365
8.417605
8.571244
8.625053
8.641708
8.745483
8.778794
8.800574
8.847978
8.956878
8.958770
8.920335
8.898555
8.799904
8.742251
8.689723
8.666661
8.661537
8.633351
8.484735
8.484735
8.486015
8.483454
8.474485
8.460392
8.341243
8.323977
8.170236
7.779477
8.343297
8.389420
8.411200
8.453376
8.430314
8.384192
8.390598
8.486686
8.495654
8.482842
8.502060
8.464906
8.423908
8.411097
8.436720
8.507185
8.429033
8.413659
8.440564
8.463625
8.450813
8.418784
8.388036
8.408534
8.388036
8.368818
8.352162
8.311165
8.174079
8.048524
7.875565
7.847482
7.819295
7.741144
7.765486
7.769330
7.737300
7.687335
7.637369
7.629682
7.575872
7.613026
7.634806
7.648899
7.688616
7.710396
7.773173
7.807765
7.792391
7.773173
7.728332
7.724489
7.747550
7.654024
7.464410
7.300419
7.238985
7.227455
7.133929
7.115992
7.068589
7.037840
7.025029
6.978906
6.962251
6.957126
6.932784
6.978906
7.009655
7.017342
6.977625
6.957126
6.939190
6.922534
6.930222
6.949439
6.952002
6.922534
6.944314
6.991718
6.989156
6.960970
6.940471
6.972500
6.955845
6.959689
6.941752
6.925097
6.887943
6.846086
6.835836
6.835836
6.814056
6.805088
6.789714
6.783308
6.844804
6.855054
6.860178
6.831993
6.805088
6.797401
6.812775
6.814056
6.815337
6.785870
6.780746
6.765371
6.752560
6.720530
6.738467
6.716687
6.733342
6.710281
6.619317
6.668002
6.664158
6.637254
6.646222
6.648784
6.646222
6.669283
6.671845
6.697469
6.684657
6.683376
6.683376
6.710281
6.710281
6.729498
6.720530
6.710281
6.748716
6.733342
6.779464
6.739748
6.732061
6.712843
6.726936
6.748716
6.720530
6.735904
6.761528
6.765371
6.753841
6.769215
6.751278
6.773058
6.790995
6.735904
6.755122
6.956267
6.983171
6.983171
6.990859
7.043387
7.063886
7.074135
7.092072
7.118976
7.074135
7.070292
7.045949
7.034419
7.015201
6.965235
6.957548
6.929362
6.935768
6.899895
6.866584
6.847367
6.824306
6.797401
6.770496
6.748716
6.675689
6.628285
6.507855
6.420735
6.421085
6.398024
6.403149
6.295530
6.210972
6.148194
6.185349
6.093104
6.026483
5.962424
5.981641
5.876585
5.901475
5.847665
5.883538
5.884820
5.754139
5.756702
5.752858
5.652926
5.601679
5.453063
5.442813
5.435126
5.401816
5.385732
5.376764
5.353703
5.330641
5.385732
5.492070
5.503600
5.504881
5.526661
5.512568
5.538192
5.525380
5.536911
5.404950
5.334485
5.320392
5.293488
5.240959
5.101311
5.114122
5.035971
4.993692
4.855325
4.822457
4.818614
4.813488
4.730212
4.612344
4.568784
4.508569
4.607219
4.585439
4.557253
4.540598
4.534192
4.486789
4.468852
4.456040
4.426573
4.309986
4.243682
4.189872
4.182186
4.111721
4.114283
4.064317
4.054068
3.981041
3.979759
4.015633
4.118126
4.168093
4.152719
4.155281
4.137344
4.150156
4.128376
4.047662
3.922107
3.909927
3.836900
3.815120
3.826651
3.802309
3.777966
3.913771
3.898397
3.863805
3.857399
3.745937
3.713907
3.768998
3.836900
3.808714
3.789497
3.726719
3.708783
3.647286
3.633193
3.599883
3.529418
3.552479
3.434611
3.479452
3.447423
3.452547
3.401300
3.410810
3.403123
3.391592
3.362125
3.298066
3.280130
3.285254
3.267318
3.248100
3.234007
3.219914
3.225039
3.210946
3.214790
3.249382
3.328815
3.349313
3.412091
3.472306
3.519710
3.529959
3.570957
3.604268
3.579925
3.599143
3.591456
3.583769
3.542771
3.522272
3.497930
3.500492
3.464619
3.450526
3.421059
3.427465
3.426184
3.390311
3.377499
3.377499
3.367250
3.344189
3.335220
3.323690
3.332658
3.312159
3.301910
3.294223
3.308316
3.295504
3.295504
3.275005
3.283973
3.281411
3.255787
3.234007
3.226320
3.207103
3.240413
3.263474
3.264756
3.267318
3.221196
3.201978
3.185323
3.213509
3.180198
3.175073
3.155856
3.137919
3.127670
3.108452
3.111014
3.114858
3.128951
3.113577
3.104609
3.090516
3.121264
3.112296
3.078985
3.070017
3.084110
3.081547
3.067454
3.044393
3.049518
3.045674
3.032863
3.053361
3.045674
3.052080
3.041831
3.045674
3.054643
3.082829
3.098203
3.113577
3.150731
3.200697
3.232726
3.305753
3.357000
3.357000
3.372375
3.372375
3.359563
3.330096
3.314722
3.280130
3.272443
3.245538
3.234007
3.255787
3.262193
3.248100
3.237851
3.242976
3.246819
3.253225
3.312159
3.341626
3.367250
3.319846
3.294223
3.321127
3.317284
3.287817
3.251944
3.280130
3.275005
3.345470
3.365969
3.380062
3.377499
3.353157
3.333939
3.348032
3.353157
3.328815
3.307034
3.283973
3.273724
3.259631
3.242976
3.230164
3.240413
3.225039
3.196853
3.189166
3.222477
3.291660
3.310878
3.321127
3.332658
3.358282
3.397998
3.499211
3.610673
3.682419
3.706762
3.715730
3.736229
3.695231
3.652952
3.624766
3.596581
3.554302
3.554302
3.741354
4.059085
4.535141
4.822774
4.931674
4.581596
4.376607
4.538352
4.734373
4.652377
4.522978
4.428171
4.273149
4.393579
4.373081
4.319272
4.214215
4.160406
4.101471
4.059193
4.041256
4.018195
3.975916
3.947730
3.910576
4.064950
4.314779
4.486457
4.613942
4.693375
4.695937
4.581913
4.596005
4.473012
4.370518
4.225746
3.984884
3.887515
3.822807
3.776685
3.789497
3.902240
3.965018
4.007297
4.017546
4.008578
3.998328
3.977830
3.979111
4.040607
4.219972
4.433928
4.533228
4.630597
4.672876
4.710030
4.597287
4.645971
4.508885
4.320552
4.023320
3.899045
3.809996
3.775404
3.710064
3.679316
3.644724
3.674191
3.717751
3.793340
3.902240
3.925302
3.830494
3.853555
3.921458
3.895834
3.850993
3.777966
3.771560
3.820245
3.994485
4.245595
4.394212
4.530017
4.637003
4.711311
4.725404
4.756153
4.697218
4.606255
4.503761
4.412797
4.333364
4.337208
4.330802
4.270586
4.255212
4.184748
4.242401
4.420485
4.743341
4.930393
5.019758
5.051787
5.019758
4.919827
5.218340
5.427172
5.636843
5.685527
5.609938
5.567659
5.431854
5.371639
5.210211
4.989849
4.955256
5.069282
5.129497
5.110279
5.087218
5.076969
5.010347
4.824576
5.023602
5.332366
5.478419
5.598407
5.654779
5.563816
5.433136
5.343453
5.290925
5.119247
4.915540
4.775054
4.640530
4.564940
4.463727
4.409918
4.414078
4.343614
4.325677
4.328239
4.364112
4.233432
4.147593
4.065598
4.095066
4.093784
4.184748
4.247526
4.439702
4.516572
4.576788
4.900926
4.701062
4.635722
4.665189
4.580631
4.499918
4.442265
4.414078
4.389736
4.398705
4.366675
4.460201
4.707468
5.038012
5.318272
5.447671
5.506163
5.297331
5.476696
5.384451
5.422886
5.568940
5.577909
5.624031
5.615063
5.465165
5.376764
5.216617
5.133340
4.938601
4.869418
4.917264
4.936481
5.220903
5.372082
5.509168
5.451072
5.518974
5.479258
5.554847
5.492070
5.297331
5.216617
5.175619
5.061594
4.898885
4.768648
4.693058
4.609782
4.543160
4.530349
4.502163
4.499600
4.530349
4.678965
4.899328
5.009509
5.008227
5.004384
5.010790
5.006947
4.987729
4.956981
4.795552
4.640530
4.609782
4.576471
4.538036
4.557253
4.695621
4.935201
5.081254
5.045382
5.008227
5.021039
4.995416
4.890359
4.713557
4.503444
4.354827
4.342332
4.346176
4.321834
4.320552
4.324396
4.307741
4.305179
4.261619
4.279555
4.266743
4.393579
4.540915
4.756153
4.898363
4.976515
5.044100
5.082536
5.115847
5.017196
4.990291
4.922389
4.839112
4.667435
4.643092
4.361233
4.173217
4.339770
4.402548
4.371799
4.361550
4.378205
4.435858
4.669033
4.903488
5.070041
5.355426
5.232433
5.182467
5.156844
5.144032
5.208091
5.208091
5.055631
5.051787
4.995416
4.910858
4.828863
4.763523
4.791708
4.718682
4.703308
4.646935
4.672559
4.644373
4.844237
5.033851
5.373363
5.483544
5.530505
5.501038
5.554847
5.554847
5.407512
5.412637
5.223022
5.257614
5.139746
5.138465
5.068000
5.034689
5.034689
4.962944
4.946289
4.870699
4.955699
5.000540
5.142751
5.547603
5.512568
5.640686
5.741899
5.799552
5.781616
5.826457
5.922545
5.896350
5.843822
5.807949
5.929661
5.752858
5.713142
5.678550
5.606804
5.537621
5.510716
5.433845
5.499185
5.620897
5.975783
6.199989
6.338356
6.412664
6.283999
6.189192
6.132820
6.050825
5.863773
5.782325
5.673425
5.596555
5.535058
5.542745
5.583743
5.725954
5.727235
5.788731
5.859196
5.955284
6.151304
6.179490
6.262767
6.169241
6.203833
6.442132
6.605575
6.682445
6.667071
6.770846
6.613262
6.568420
6.431334
6.381369
6.292967
6.212253
6.168693
6.182786
6.222503
6.080292
6.181505
6.055950
6.044419
6.134101
6.348058
6.316029
6.426210
6.403149
6.318591
6.266063
6.309623
6.328840
6.219940
6.166131
6.367276
6.473613
6.472332
6.547922
6.569702
6.579951
6.546640
6.600450
6.439022
6.314747
6.463364
6.405711
6.492831
6.645291
6.897683
7.037331
7.089509
6.975484
7.062604
7.029294
7.043387
6.993421
6.962673
6.920394
6.883240
7.001108
6.764090
6.701313
6.693625
6.592412
6.565508
6.414329
6.536391
6.641448
6.842592
6.868216
6.884871
6.979678
6.935768
7.002389
6.875553
6.926800
7.022888
6.861460
6.783308
6.719249
6.738467
6.741029
6.646222
6.586007
6.623161
6.586007
6.545009
6.441234
6.393830
6.282718
6.045700
5.831744
5.865602
5.766951
5.570931
5.415909
5.445947
5.686809
5.675278
5.636843
5.716276
5.702183
5.654779
5.458759
5.447228
5.529224
5.324235
5.243521
4.961662
4.805359
4.895484
4.923670
4.890359
4.795552
4.421449
4.455076
4.525541
4.456357
4.367956
4.376925
4.397423
4.360269
4.384612
4.283399
4.283399
4.324396
4.357707
4.379487
4.238557
4.201403
4.215496
4.120689
4.079691
3.995134
4.002820
3.940043
3.983603
3.949011
3.904170
3.921458
3.903522
3.894553
3.842025
3.852274
3.861243
3.809996
3.788216
3.811277
3.808714
3.843306
3.909927
4.080324
4.186662
4.141820
4.152070
4.049576
4.036764
4.059825
4.130290
4.107229
4.121322
4.129009
4.052138
4.017546
3.934270
3.925302
3.966299
4.020109
4.049576
4.000891
4.049576
3.922739
3.845869
3.961174
4.049576
3.986798
3.812558
3.858680
3.788216
3.802309
3.807433
3.829213
3.858680
3.845869
3.763873
3.724157
3.719032
3.722876
3.763873
3.753624
3.734406
3.753624
3.875335
3.861243
3.941957
3.924020
3.970143
3.929145
3.899678
3.881742
3.940675
3.948363
3.947082
3.836900
3.856118
3.911208
3.790778
3.795902
3.806152
3.881742
3.824089
3.783091
3.806152
3.852274
3.865086
3.871492
3.840744
3.821526
3.815120
3.834338
3.822807
3.829213
3.863805
3.986798
4.071356
4.099542
4.225097
4.136696
4.125165
4.456990
4.483262
4.516572
4.588318
4.704906
4.886833
5.063635
5.309304
5.402830
5.416923
5.456197
5.449791
5.406231
5.296050
5.197399
5.119247
5.069282
5.018034
4.989849
4.939882
4.906572
4.898046
4.855768
4.826301
4.780178
4.753273
4.780178
4.885234
5.030007
5.090223
5.115847
5.145313
5.127377
5.088942
5.058194
4.949294
4.833988
4.681528
4.643092
4.449635
4.294612
4.227026
4.297492
4.296210
4.271868
4.298772
4.219339
4.174499
4.218059
4.457638
4.740778
4.907331
4.970109
5.051787
5.164531
5.138907
5.009509
4.954418
4.937763
4.883954
4.877548
4.835268
4.718682
4.608500
4.725088
4.471415
4.318954
4.215496
4.224464
4.502480
4.671595
4.730529
4.770246
4.806118
4.897082
5.035449
5.129940
4.935201
5.243964
5.316991
5.226027
5.163250
5.156844
5.128658
5.101753
5.095347
5.024883
5.079973
5.105597
5.060756
5.013352
5.074849
5.064600
5.092785
5.015914
5.041538
4.986447
4.908296
4.898046
4.914701
4.930076
5.014634
5.040257
4.398387
4.661345
4.588318
4.547321
4.526822
4.875302
4.957297
4.985167
4.986447
4.994134
5.031289
5.129940
5.302898
5.482263
5.638124
5.744462
5.709870
5.535630
5.448510
5.453634
5.498476
5.420324
5.425448
5.426730
5.383170
5.348578
5.325517
5.348578
5.329360
5.262739
5.242240
5.226866
5.208930
5.190993
5.220460
5.237115
5.329360
5.518974
5.745743
5.857205
5.939200
6.010375
6.050091
6.134649
6.266610
6.331950
6.208957
6.233300
6.214082
5.948878
5.760545
5.664457
5.590149
5.552995
5.386442
5.070562
4.787423
4.790428
4.817332
4.822457
4.887797
4.883954
4.986447
5.040257
5.038976
5.031289
5.101753
5.079973
5.110722
5.405392
5.518136
5.695777
5.718838
5.568940
5.565097
5.643249
5.351140
5.401106
5.404950
5.196118
5.347297
5.233272
5.142308
5.043658
4.987286
4.953976
4.915540
5.012071
5.258057
5.308023
5.378488
5.424610
5.451072
5.388294
5.293488
5.367795
5.401106
5.393419
5.376764
5.353703
5.344734
5.335766
5.321673
5.313986
5.302455
5.246084
4.864293
5.169656
5.211935
5.305460
5.331084
5.384893
5.410517
5.452353
5.507444
5.520256
5.526661
5.515131
5.516412
5.533067
5.511287
5.513850
5.483101
5.463884
5.465165
5.467727
5.420324
5.433136
4.988567
5.285800
5.358827
5.070562
5.589439
5.850799
6.069880
6.212801
6.215363
6.225613
6.162835
6.103901
6.044967
5.998844
5.959128
5.905318
5.895069
5.895069
5.831010
5.749015
5.729797
5.591430
5.596555
5.643958
5.556838
5.509435
5.406940
5.339610
5.394700
5.425448
5.383170
5.354984
5.091062
5.366514
5.272988
5.148715
5.194837
5.175619
5.120528
5.044939
5.120528
5.060313
5.061594
5.111560
5.123091
5.128215
5.107717
5.057751
5.001379
4.933476
4.942445
4.956538
4.943726
4.915540
4.900609
4.881391
4.882672
4.858330
4.785303
4.575190
4.750711
4.672559
4.739181
4.726368
4.702026
4.702026
4.712276
4.719963
4.707151
4.671278
4.676403
4.659748
4.627718
4.644373
4.657185
4.650779
4.630280
4.567502
4.393263
4.401267
4.411516
4.439702
4.440983
4.424328
4.487105
4.446108
4.483262
4.517854
4.546040
4.635722
4.651096
4.630597
4.701062
4.733091
4.738216
4.720280
4.734373
4.734373
4.676720
4.538352
4.724123
4.908613
4.759996
4.779214
4.754871
4.697218
4.698500
4.665189
4.670314
4.648534
4.669033
4.681844
4.547321
4.626754
4.669033
4.669033
4.711311
4.663908
4.551164
4.440983
4.515291
4.549883
4.446108
4.380768
4.410235
4.425609
4.407672
4.324396
4.268024
4.293648
4.253932
4.155281
4.029726
3.984884
4.025882
4.097628
4.202684
4.243682
4.273149
4.214215
4.121970
4.078410
4.078410
4.060473
4.091222
4.101471
4.093784
4.152719
4.319272
4.520416
4.745903
4.926549
5.019758
5.050507
5.028727
5.073567
5.122252
5.124815
5.117127
5.091504
5.030007
4.983885
4.927514
4.850643
4.799396
4.676403
4.645655
4.558535
4.512412
4.513693
4.488070
4.309986
3.888796
3.768998
3.646005
3.610132
3.466640
3.470484
3.474327
3.460234
3.437173
3.357740
3.396717
3.477431
3.495368
3.482556
3.444120
3.359563
3.322409
3.324971
3.455651
3.413372
3.332658
3.559426
3.692669
3.750322
3.736229
3.674732
3.706762
3.652952
3.522272
3.527397
3.546615
3.546615
3.536365
3.547896
3.550458
3.468463
3.405685
3.363406
3.348032
3.533803
3.577363
3.541490
3.569676
3.576082
3.595299
3.609392
3.624766
3.627329
3.620923
3.617079
3.604268
3.608111
3.574800
3.510742
3.455651
3.430027
3.421059
3.450526
3.529959
3.578644
3.641422
3.684982
3.701637
3.705481
3.699075
3.691388
3.723417
3.729823
3.691388
3.664483
3.649109
3.636297
3.626048
3.614517
3.601705
3.591456
3.569676
3.532522
3.533803
3.564551
3.519710
3.563270
3.569676
3.545333
3.491524
3.497930
3.542771
3.576082
3.602986
3.682419
3.804131
3.852816
3.986058
4.071356
4.057263
4.058544
4.041889
4.048295
4.095698
4.162319
4.209723
4.231503
4.235346
4.221253
4.198192
4.170006
4.127728
4.080324
4.026515
3.966299
3.934270
3.897115
3.867649
3.849712
3.831775
3.803590
3.758749
3.725438
3.703658
3.687003
3.679316
3.669066
3.663941
3.658817
3.649848
3.654973
3.725438
3.876617
4.093136
4.291718
4.417274
4.480700
4.499918
4.503761
4.478137
4.435858
4.378205
4.315428
4.264181
4.216777
4.171936
4.132219
4.104033
4.079691
4.064317
4.050224
3.965667
4.041256
3.987447
3.851642
3.808714
3.813839
3.877898
3.904803
3.947082
3.991923
4.014984
4.058544
4.173850
4.171288
4.136696
4.098260
4.043169
3.917614
4.009859
3.988079
3.949644
3.926583
3.952206
4.016265
4.080324
4.168725
4.152070
3.738250
4.143102
4.190505
4.372432
4.567171
4.826617
5.041855
5.132502
5.124815
5.120971
4.844237
4.735337
4.924951
4.816051
4.612344
4.383013
4.143750
4.004102
3.913138
3.818964
3.789497
3.754905
3.571697
3.525574
3.646005
3.801027
3.822807
3.754905
3.607570
3.717751
3.961174
4.284031
4.304530
4.281468
4.104666
3.993204
3.900959
3.766436
3.712626
3.547354
3.292400
3.271162
3.412091
3.468463
3.553020
3.618361
3.628610
3.628610
3.681138
3.792600
3.725979
3.755446
3.805412
3.793882
3.732385
3.646546
3.586331
3.545333
3.482556
3.382624
3.323690
3.295504
3.271162
3.240413
3.186604
3.166105
3.141763
3.119983
3.089234
3.070017
3.061049
3.054643
3.036706
3.035425
3.030300
3.026457
3.017488
3.017488
3.012364
3.012364
2.986740
2.982897
2.980335
2.971366
2.966241
2.972647
2.972647
2.967523
2.941899
2.945743
2.873997
2.816434
2.826684
2.956082
3.044483
3.120073
3.171320
3.184132
3.181569
3.175164
3.157227
3.120073
3.080356
3.047046
3.013735
2.975300
2.953520
2.938146
2.924053
2.909960
2.907398
2.902273
2.912522
2.916366
2.907398
2.883055
2.886899
2.893305
2.947114
3.058576
3.191819
3.321218
3.416025
3.476150
3.485118
3.501773
3.505617
3.463338
3.453089
3.444120
3.415935
3.346751
3.258350
3.217352
3.171230
3.140481
3.109733
3.098203
3.087953
3.091797
3.144325
3.250663
3.365969
3.460776
3.523553
3.547896
3.544052
3.563270
3.588893
3.583769
3.553020
3.500492
3.455651
3.408247
3.362125
3.318565
3.290379
3.249382
3.212227
3.172511
3.140481
3.127670
3.099484
3.081547
3.066173
3.062330
3.044393
3.034144
3.029019
3.021332
3.011083
2.999552
2.998271
2.980335
2.976491
3.178917
3.462057
3.737510
3.866909
3.941217
3.953487
3.963737
3.959893
3.899678
3.826651
3.745937
3.671628
3.590914
3.474327
3.388488
3.353157
3.326252
3.286536
3.242976
3.216071
3.198134
3.178917
3.159699
3.144325
3.137919
3.125107
3.109733
3.107171
3.107171
3.090516
3.078985
3.063611
3.052080
3.029019
3.018770
3.031581
3.027738
3.016207
3.000833
2.998271
3.007239
2.999552
2.982897
2.980335
2.980335
2.980335
2.958555
2.957273
2.971366
2.964960
2.957273
2.950867
2.948305
2.959836
3.021332
3.119983
3.263474
3.350595
3.419778
3.444120
3.444120
3.438996
3.446683
3.513304
3.617079
3.699075
3.713167
3.700356
3.687544
3.650390
3.610673
3.529959
3.432590
3.390311
3.331377
3.257069
3.212227
3.184042
3.146887
3.121264
3.100765
3.087953
3.068736
3.055924
3.030300
3.018770
3.066173
3.157137
3.296785
3.436433
3.528678
3.555583
3.569676
3.576082
3.600424
3.560708
3.472306
3.372375
3.355719
3.341626
3.239132
3.232726
3.245538
3.214790
3.185323
3.172511
3.162261
3.175073
3.212227
3.251944
3.276286
3.283973
3.291660
3.282692
3.271162
3.257069
3.242976
3.217352
3.189166
3.176354
3.167386
3.159699
3.062330
3.020051
3.066173
3.075141
3.104609
3.209665
3.408247
3.487680
3.488962
3.495368
3.508179
3.596581
3.755446
3.966841
4.055982
4.223815
4.167444
4.167444
4.100822
3.995766
3.870211
3.761311
3.662660
3.599883
3.464078
3.420518
3.394155
3.357000
3.289098
3.253225
3.292942
3.381343
3.503055
3.629891
3.745197
3.811818
3.816943
3.811818
3.778507
3.724698
3.664483
3.582488
3.508179
3.435152
3.395436
3.351876
3.296785
3.239132
3.194291
3.184042
3.158418
3.132794
3.171230
3.225039
3.275005
3.301910
3.328815
3.330096
3.321127
3.289098
3.328815
3.372375
3.428746
3.450526
3.453089
3.449245
3.427465
3.422340
3.419778
3.390311
3.322409
3.253225
3.234007
3.216071
3.181479
3.146887
3.125107
3.108452
3.082829
3.114858
3.237851
3.417216
3.568395
3.676013
3.745197
3.795163
3.802850
3.843848
3.904063
3.914312
3.820245
3.749780
3.717751
3.643443
3.580665
3.492264
3.396175
3.298066
3.245538
3.208384
3.190447
3.175073
3.168667
3.163543
3.169949
3.207103
3.248100
3.276286
3.289098
3.266037
3.296785
3.244257
3.168667
3.159699
3.158418
3.160980
3.130232
3.134076
3.203259
3.199416
3.135357
3.095640
3.068736
3.064892
3.055924
3.054643
3.061049
3.007239
2.927806
3.021332
3.098203
3.104609
3.113577
3.107171
3.091797
3.063611
3.043112
3.012364
2.980335
2.950867
2.925244
2.907398
2.897148
2.879212
2.870244
2.856151
2.838214
2.826684
2.824121
2.822840
2.815153
2.816434
2.831808
2.818996
2.816434
2.865119
2.868962
2.859994
2.808747
2.767749
2.752375
2.722908
2.725471
2.703691
2.689598
2.680629
2.711378
2.757500
3.071388
2.994518
2.845901
3.243066
3.245628
3.465991
3.756727
3.914312
3.938113
3.870211
3.876617
3.884304
3.792059
3.774122
3.665223
3.592196
3.587071
3.520450
3.451266
3.414112
3.350595
3.324971
3.271162
3.217352
3.237851
3.204540
3.296785
3.317284
3.500492
3.737510
3.811818
3.825911
3.750322
3.729823
3.595299
3.796444
3.784914
3.807975
3.651671
3.615798
3.551739
3.444120
3.414653
3.404404
3.413372
3.396717
3.561989
3.651671
3.755446
3.772102
3.852816
3.823349
3.889970
3.902782
3.879720
3.806694
3.781070
3.733666
3.679857
3.578644
3.464619
3.492805
3.451807
3.405685
3.345470
3.342907
3.556864
3.742635
3.950185
4.129009
4.191786
4.235346
4.207160
4.189224
4.077762
4.014984
3.929145
3.803590
3.716470
3.647286
3.564010
3.544792
3.508919
3.493545
3.433330
3.429486
3.432048
3.396175
3.314722
3.287817
3.303191
3.350595
3.496649
3.587612
3.760571
3.851535
3.900219
3.914312
3.858680
3.811277
3.768998
3.742093
3.637037
3.475608
3.441017
3.470484
3.471765
3.460234
3.443579
3.369271
3.351876
3.454370
3.646546
3.857940
4.038587
4.175131
4.228940
4.264813
4.173850
4.113635
4.038045
3.924020
3.822807
3.720313
3.612694
3.539667
3.502513
3.447423
3.416674
3.369812
3.328815
3.317284
3.408247
3.591456
3.709324
3.709324
3.791319
3.755446
3.792600
3.774664
3.751603
3.733666
3.718292
3.697793
3.649109
3.583769
3.538928
3.567113
3.476150
3.385186
3.354438
3.478712
3.601705
3.691388
3.601705
3.723417
3.802850
3.779789
3.774664
3.777226
3.747759
3.732385
3.661921
3.573519
3.532522
3.506898
3.467182
3.422340
3.307034
3.304472
3.335220
3.330096
3.342907
3.465900
3.588893
3.702918
3.708043
3.633734
3.645265
3.702918
3.674732
3.696512
3.670889
3.816943
3.952748
3.988079
3.980392
3.947082
3.922739
3.981673
3.940675
3.876617
3.797184
3.745937
3.695971
3.674191
3.588352
3.708783
3.862524
3.931707
3.857399
3.874054
3.990641
3.903522
3.866367
3.680597
3.809996
3.811277
3.758749
3.715189
3.575540
3.523012
3.556323
3.540948
3.464078
3.538386
3.754905
3.976548
4.123884
4.114916
4.255845
4.310935
4.286593
4.171288
4.066231
3.812558
3.859962
3.931707
3.740812
3.452547
3.512763
3.419237
3.368531
3.533803
3.927124
4.199473
4.084167
4.026515
4.168725
4.168725
4.153351
4.193068
4.012422
4.071356
4.161038
4.409586
4.426241
4.432015
4.378205
4.347457
4.287242
4.406391
4.480700
4.478137
4.440983
4.419203
4.369237
4.350019
4.243682
3.992571
4.069442
4.098909
3.956698
3.897764
3.891991
3.859962
3.834338
3.831775
3.770279
3.794621
3.765154
3.703658
3.818964
3.998328
4.111072
4.068793
4.131571
4.219972
4.162319
4.116197
4.149508
4.170006
4.144382
4.104666
4.039326
4.022671
3.979111
3.932988
3.858680
3.825370
3.790778
3.716470
3.692127
3.662660
3.684440
3.754905
3.871492
3.958612
4.073918
4.105947
4.089292
4.113635
4.098260
4.064950
4.011140
3.927864
3.953487
3.961174
3.894553
3.792059
3.857399
4.136696
4.314779
4.243033
4.314779
4.389088
4.382681
4.439054
4.473012
4.419203
4.483262
4.451232
4.439702
4.298772
4.206528
4.147593
4.075848
4.029726
4.132219
4.366675
4.505042
4.547321
4.642128
4.707468
4.683125
4.666470
4.626754
4.588318
4.547321
4.448670
4.378205
4.397423
4.364112
4.270586
4.265462
4.483262
4.625473
4.742060
4.733091
4.753590
4.825336
4.840710
4.756153
4.588318
4.557570
4.502480
4.417922
4.384612
4.310303
4.209090
4.184748
4.065598
3.992571
3.969510
4.045100
4.047662
4.042537
4.253932
4.384612
4.394861
4.334645
4.373081
4.367956
4.374362
4.271868
4.230870
4.196279
4.166811
4.039975
3.959261
3.975916
3.950292
4.005383
4.065598
4.202684
4.344895
4.397423
4.353863
4.321834
4.348738
4.392298
4.366675
4.342332
4.315428
4.294929
4.148875
4.022038
3.969510
3.950292
3.820894
3.738250
3.721594
3.776685
3.822807
3.834338
3.920177
4.027796
4.088011
4.049576
4.047013
4.023952
3.975267
3.891991
3.789497
3.707501
3.643443
3.626787
3.476890
3.488420
3.687003
3.898397
3.938113
4.080324
4.199473
4.231503
4.190505
4.228940
4.228940
4.230222
4.158475
4.099542
3.995766
3.944519
3.816401
3.734406
3.662660
3.637037
3.574259
3.458953
3.489701
3.605007
3.719032
3.881742
3.895834
3.920177
3.949644
3.893272
3.863805
3.897115
3.940675
3.932988
3.854837
3.876617
3.845869
3.724157
3.719032
3.663941
3.601164
3.489701
3.446141
3.437173
3.415393
3.409529
3.491524
3.546615
3.542771
3.559426
3.623485
3.674732
3.725979
3.711886
3.659358
3.649109
3.605549
3.545333
3.559426
3.576082
3.588893
3.545333
3.547896
3.561989
3.535084
3.615798
3.807975
3.947623
4.004735
3.958612
3.966299
3.965018
3.907365
3.808714
3.731844
3.635756
3.558885
3.489701
3.416674
3.391592
3.340345
3.280130
3.244257
3.241694
3.228883
3.266037
3.363406
3.488962
3.588893
3.646546
3.706762
3.736229
3.696512
3.660639
3.629891
3.587612
3.544052
3.488962
3.438996
3.406966
3.363406
3.262193
3.283973
3.263474
3.242976
3.228883
3.225039
3.292942
3.447964
3.626048
3.801569
3.900219
3.897657
3.887408
3.786195
3.815662
3.747759
3.659358
3.595299
3.505617
3.427465
3.344189
3.323690
3.273724
3.205822
3.173792
3.159699
3.173792
3.240413
3.386467
3.497930
3.579925
3.611955
3.656796
3.683701
3.670889
3.647828
3.629891
3.556864
3.496649
3.433871
3.421059
3.378780
3.314722
3.276286
3.253225
3.305753
3.406966
3.523553
3.688825
3.717011
3.768258
3.719573
3.690106
3.670889
3.585050
3.560708
3.614517
3.718292
3.660639
3.709324
3.713167
3.641422
3.527397
3.533803
3.546615
3.563270
3.499211
3.504336
3.501773
3.490243
3.483837
3.496649
3.572238
3.641422
3.740072
3.811818
3.896376
3.901500
3.845129
3.865628
3.848972
3.877158
3.847691
3.870752
3.827192
3.704199
3.635016
3.568395
3.485118
3.354438
3.331377
3.295504
3.273724
3.221196
3.186604
3.167386
3.181479
3.267318
3.442839
3.643984
3.749041
3.805412
3.804131
3.801569
3.747759
3.676013
3.638859
3.559426
3.454370
3.336502
3.328815
3.285254
3.218633
3.228883
3.289098
3.399279
3.491524
3.549177
3.595299
3.585050
3.569676
3.545333
3.471025
3.406966
3.359563
3.317284
3.259631
3.162261
3.159699
3.139200
3.144325
3.114858
3.134076
3.286536
3.436433
3.551739
3.665764
3.758009
3.758009
3.727261
3.700356
3.679857
3.605549
3.503055
3.435152
3.368531
3.324971
3.253225
3.210946
3.200697
3.204540
3.263474
3.424903
3.624766
3.755446
3.778507
3.773383
3.820786
3.778507
3.697793
3.670889
3.659358
3.578644
3.508179
3.438996
3.374937
3.323690
3.281411
3.236570
3.213509
3.191729
3.213509
3.321127
3.482556
3.558145
3.590175
3.705481
3.636297
3.623485
3.610673
3.545333
3.472306
3.410810
3.353157
3.321127
3.324971
3.266037
3.214790
3.187885
3.158418
3.122545
3.104609
3.143044
3.276286
3.440277
3.600424
3.673451
3.705481
3.706762
3.608111
3.613236
3.623485
3.570957
3.514585
3.460776
3.405685
3.330096
3.267318
3.236570
3.249382
3.310878
3.394155
3.526116
3.605549
3.532522
3.547896
3.565832
3.610673
3.672170
3.676013
3.661921
3.594018
3.500492
3.456932
3.415935
3.339064
3.271162
3.218633
3.175073
3.157137
3.117420
3.146887
3.285254
3.428746
3.506898
3.601705
3.660639
3.701637
3.692669
3.684982
3.641422
3.597862
3.532522
3.447964
3.364687
3.321127
3.282692
3.249382
3.263474
3.266037
3.257069
3.201978
3.226320
3.267318
3.328815
3.409529
3.424903
3.433871
3.399279
3.403123
3.397998
3.387749
3.322409
3.394155
3.551739
3.520991
3.445402
3.358282
3.506898
3.537646
3.591456
3.833598
3.702918
3.397998
3.424903
3.568395
3.787476
4.056523
4.109791
4.108510
4.075199
4.194349
3.781810
4.267375
3.849712
3.619100
3.708783
4.139258
4.273782
4.351933
4.211004
4.121322
3.934270
3.774122
3.824089
4.050857
4.222535
4.014984
4.002172
4.002172
4.047013
4.039326
3.900959
3.766436
3.922739
4.213566
4.339121
4.167444
3.917614
4.161038
4.187943
4.236628
4.127728
4.039326
4.131571
4.164882
4.209723
4.075199
3.957331
3.948363
4.098260
4.130290
3.895834
4.000891
4.140539
4.170006
4.094417
4.058544
4.048295
4.063669
4.052138
3.998328
3.879179
3.785653
3.826651
3.859962
3.891991
4.055982
4.085449
4.052138
4.175131
4.173850
4.023952
3.875335
3.888147
3.948363
3.975267
4.013703
3.807433
3.790778
3.807433
3.466640
3.806152
3.853555
3.772841
3.706220
3.633193
3.578103
3.599883
3.475608
3.767717
4.022671
4.002172
4.053419
4.103385
4.009859
3.968862
3.938113
3.877898
3.663941
3.488420
3.543511
3.620381
3.780529
3.799746
3.780529
3.777966
3.845869
3.934270
3.932988
3.792059
3.711345
3.774122
3.879179
3.781810
3.646005
3.566572
3.523012
3.580665
3.565291
3.501232
3.320586
3.305753
3.310878
3.332658
3.272443
3.155856
3.167386
3.346751
3.492805
3.610673
3.579925
3.517148
3.576082
3.709324
3.823349
3.777226
3.719573
3.523553
3.487680
3.572238
3.529959
3.478712
3.351876
3.181479
3.219914
3.210946
3.189166
3.154574
2.948305
3.016207
3.180198
3.230164
3.285254
3.258350
3.308316
3.328815
3.390311
3.391592
3.364687
3.169949
3.023894
3.064892
2.948305
2.966241
2.986740
3.149450
3.394155
3.499211
3.651671
3.742635
3.761852
3.701637
3.658077
3.672170
3.701637
3.579925
3.601705
3.643984
3.417216
3.409529
3.465900
3.406966
3.339064
3.295504
3.236570
3.213509
3.218633
3.295504
3.432590
3.602986
3.690106
3.741354
3.810537
3.770821
3.728542
3.611955
3.523553
3.596581
3.536365
3.469744
3.305753
3.162261
3.136638
3.116139
3.078985
3.117420
3.114858
3.022613
3.075141
3.154574
3.216071
3.250663
3.225039
3.190447
3.282692
3.333939
3.358282
3.303191
3.135357
3.099484
3.139200
3.143044
3.143044
3.126389
3.036706
3.128951
3.333939
3.440277
3.495368
3.468463
3.392873
3.323690
3.372375
3.371093
3.296785
3.250663
3.100765
3.100765
3.055924
3.168667
3.173792
3.317284
3.588893
3.690106
3.681138
3.683701
3.676013
3.713167
3.681138
3.658077
3.615798
3.561989
3.540209
3.469744
3.340345
3.280130
3.371093
3.518429
3.672170
3.727261
3.462057
3.503055
3.618361
3.620923
3.722136
3.646546
3.503055
3.472306
3.360844
3.336502
3.317284
3.213509
3.000833
2.972647
3.005958
2.967523
3.008520
3.041831
2.952148
3.012364
3.134076
3.166105
3.339064
3.378780
3.283973
3.350595
3.353157
3.426184
3.440277
3.432590
3.280130
3.164824
3.250663
3.258350
3.345470
3.417216
3.408247
3.327533
3.340345
3.415935
3.479993
3.569676
3.560708
3.422340
3.392873
3.520991
3.563270
3.627329
3.506898
3.408247
3.357000
3.364687
3.301910
3.298066
3.367250
3.396717
3.441558
3.569676
3.524835
3.428746
3.508179
3.574800
3.602986
3.491524
3.321127
3.292942
3.295504
3.286536
3.231445
3.159699
3.095640
3.094359
3.245538
3.336502
3.491524
3.620923
3.699075
3.791319
3.760571
3.718292
3.627329
3.613236
3.604268
3.531240
3.394155
3.201978
3.207103
3.172511
3.171230
3.062330
2.868872
2.970175
2.988112
3.071388
3.131603
3.082919
3.161071
3.230254
3.308406
3.307125
3.303281
3.269971
3.243066
3.390401
3.449335
3.385186
3.349313
3.277567
3.269880
3.263474
3.364687
3.405685
3.335220
3.351876
3.381343
3.382624
3.217352
3.086672
3.178917
3.205822
3.245538
3.223758
3.190447
3.112296
3.105890
3.268599
3.410810
3.505617
3.577363
3.650390
3.696512
3.746478
3.746478
3.774664
3.652952
3.606830
3.568395
3.531240
3.476150
3.367250
3.305753
3.358282
3.413372
3.546615
3.578644
3.597862
3.661921
3.731104
3.668326
3.628610
3.494086
3.517148
3.481275
3.404404
3.312159
3.208384
3.181479
3.204540
3.190447
3.182760
3.131513
3.214790
3.369812
3.389030
3.406966
3.399279
3.404404
3.355719
3.423622
3.471025
3.573519
3.545333
3.372375
3.465900
3.524835
3.495368
3.428746
3.218633
3.158418
3.175073
3.139200
3.172511
3.186604
3.076423
3.153293
3.255787
3.301910
3.316003
3.210946
3.207103
3.360844
3.376218
3.349313
3.303191
3.158418
3.200697
3.395436
3.405685
3.458213
3.417216
3.269880
3.237851
3.227602
3.251944
3.177636
3.139200
3.171230
3.109733
3.085391
3.223758
3.351876
3.412091
3.462057
3.483837
3.476150
3.450526
3.248100
3.194291
3.275005
3.257069
3.209665
3.131513
3.073860
3.017488
3.082829
3.214790
3.273724
3.515866
3.540209
3.432590
3.374937
3.569676
3.486399
3.431309
3.346751
3.236570
3.257069
3.209665
3.076423
3.094359
3.171230
3.340345
3.477431
3.579925
3.551739
3.577363
3.518429
3.547896
3.451807
3.400560
3.399279
3.378780
3.333939
3.193010
3.105890
3.090516
3.153293
3.253225
3.245538
3.309597
3.432590
3.491524
3.509460
3.415935
3.454370
3.488962
3.492805
3.424903
3.241694
3.180198
3.196853
3.184042
3.132794
2.926525
2.921490
2.998361
3.079075
3.123916
3.172601
3.334029
3.421149
3.451807
3.435152
3.395436
3.435152
3.460776
3.462057
3.298066
3.369812
3.321127
3.245538
3.135357
3.132794
3.029019
2.967523
2.973928
3.070017
3.039268
3.198134
3.283973
3.330096
3.410810
3.380062
3.309597
3.317284
3.259631
3.235289
3.244257
3.167386
3.098203
3.027738
2.998271
3.016207
3.008520
2.944461
3.032863
3.180198
3.282692
3.209665
3.068736
3.068736
3.102046
3.204540
3.269880
3.173792
3.209665
3.114858
3.086672
3.061049
2.967523
2.822750
2.852307
2.820277
2.798497
2.707534
2.624258
2.643475
2.722908
2.738282
2.703691
2.678067
2.774155
2.976581
3.132885
3.186694
3.162352
3.075232
3.214880
3.253315
3.085481
2.965050
2.950958
2.970175
2.938146
2.852307
2.730595
2.716502
2.710096
2.698566
2.678067
2.625539
2.711378
2.881774
3.017579
3.104699
3.068826
3.077794
3.212318
3.281501
3.285345
3.314812
3.273814
3.246909
3.225129
3.166195
3.246909
3.047046
2.922772
2.886899
2.894586
2.924053
2.949677
3.080356
3.226411
3.303281
3.281501
3.281501
3.289188
3.281501
3.225129
3.202068
3.175164
3.187975
3.166195
3.129041
3.099574
3.084200
3.057295
3.072670
3.161071
3.248191
3.358372
3.354528
3.336592
3.299438
3.259721
3.190538
3.129041
3.081638
3.032953
2.982987
2.947114
2.950958
2.961207
2.811309
3.073951
3.193100
3.230254
3.230254
3.223848
3.214880
3.209755
3.173882
3.135447
3.104699
3.073951
3.036796
2.975300
2.930459
2.903554
2.906116
2.975300
3.043202
3.148259
3.244347
3.280220
3.314812
3.310968
3.278939
3.236660
3.200787
3.163633
3.109823
3.071388
3.013735
2.982987
2.952239
2.894586
2.856151
2.835652
2.839495
2.898429
3.012454
3.131603
3.240504
3.281501
3.305844
3.339154
3.325061
3.310968
3.295594
3.259721
3.223848
3.191819
3.138009
3.085481
3.052171
3.082919
3.166195
3.319937
3.477521
3.510742
3.600424
3.659358
3.665764
3.706762
3.704199
3.702918
3.752884
3.841285
3.824630
3.641422
3.813099
3.647828
3.751603
3.860503
3.959153
4.066231
4.130290
4.175131
4.195630
4.198192
4.200755
4.198192
4.158475
4.130290
4.105947
4.082886
4.044451
4.023952
3.997047
3.945800
3.921458
3.926583
3.847150
3.857399
3.915052
4.143102
4.205879
4.232784
4.335278
4.332716
4.204598
4.136696
4.113635
4.049576
3.968862
3.953487
3.898397
3.836900
3.809996
3.740812
3.724157
3.715189
3.730563
3.736969
3.786934
3.821526
3.888147
3.953487
4.082886
3.959893
3.899678
4.122602
4.189224
4.187943
4.026515
3.881742
3.725438
3.736969
3.795902
3.971424
4.085449
3.961174
4.150789
4.262251
4.291718
4.208442
4.159757
4.264813
4.281468
3.930426
4.249439
4.380119
4.460834
4.607536
4.593443
4.580631
4.649815
4.718998
4.684407
4.567820
4.537071
4.478137
4.449951
4.417922
4.348738
4.337208
4.389736
4.621629
4.616504
4.660064
4.798431
4.780495
4.779214
4.663908
4.717717
4.766402
4.747184
4.730529
4.704906
4.660064
4.612661
4.631878
4.681844
4.774089
4.904769
5.023919
5.156844
5.247808
5.286243
5.354145
5.402830
5.414361
5.312705
5.510006
5.489507
5.393419
5.220460
5.216617
5.161526
5.071844
5.001379
5.062875
5.119247
5.257614
5.454916
5.620187
5.740618
5.809802
5.831582
5.834144
5.844393
5.825176
5.857205
5.836706
5.690652
5.690652
5.607376
5.557410
5.475414
5.362671
5.198680
5.276832
5.272988
5.211492
5.294768
5.416480
5.393419
5.407512
5.389575
5.379326
5.306299
5.201242
5.261458
5.320392
5.266582
5.289644
5.185868
5.125653
4.945007
4.864293
4.753273
4.605938
4.513693
4.350984
4.414078
4.392298
4.369237
4.452514
4.406391
4.556289
4.611380
4.398705
4.333364
4.228308
4.269305
4.323115
4.379487
4.424328
4.497355
4.552445
4.557570
4.434577
4.417922
4.461482
4.498636
4.519135
4.689531
4.841991
4.606255
4.763840
4.831742
4.754871
4.786901
4.956016
5.083817
5.096629
5.053069
5.023602
5.010790
4.939044
5.217059
5.197842
5.060756
5.250370
5.106878
5.010790
4.991572
5.113284
5.269588
5.466889
5.538192
5.501038
5.456197
5.289644
5.102592
5.276832
5.531786
5.223022
5.080812
5.133340
5.240959
5.292206
5.223022
5.296050
5.448510
5.319111
5.499757
5.685527
5.734212
5.658623
5.531786
5.449791
5.369077
5.439541
5.214055
5.320392
5.445947
5.433136
5.884110
6.069880
6.148742
6.178209
6.164116
6.240987
6.247393
6.224331
6.276860
6.407540
6.417789
6.351902
6.355745
6.353183
6.362151
6.378806
6.428772
6.517173
6.514611
6.736255
6.878465
6.622230
6.829781
6.952774
7.034419
7.072854
7.075416
6.615474
6.789714
6.790995
6.860178
6.849929
6.851210
6.862741
6.906301
6.798682
6.808931
6.684657
6.359238
6.501799
6.950211
6.724374
6.846086
6.985734
7.044668
7.083103
7.106164
7.125382
7.148443
7.145881
7.156130
7.140756
7.149724
7.259906
7.355994
7.393148
7.439270
7.529812
7.573372
7.638712
7.707896
7.761705
7.779642
7.806547
7.821921
7.842420
7.848825
7.838576
7.834733
7.859075
7.842420
7.824483
7.820640
7.827045
7.824483
7.832170
7.828327
7.838576
7.837295
7.839857
7.830889
7.816796
7.819358
7.803984
7.843701
7.883417
7.964131
8.145996
8.299737
8.435542
8.541777
8.727548
8.750608
8.982502
9.227818
9.318781
9.322624
9.303407
9.308531
9.134291
9.068952
9.207318
9.199631
9.131729
9.175289
9.230379
9.174007
9.135572
9.200912
9.235504
9.268815
9.452023
9.545879
9.656060
9.654779
9.504882
9.529223
9.533068
9.492070
9.402388
9.244802
9.379326
9.247365
9.115404
9.192274
9.445948
9.439542
9.384451
9.406231
9.338328
9.363952
9.337048
9.430573
9.253771
9.312705
9.408793
9.599689
9.576628
9.785460
9.725244
9.889235
9.837988
9.808520
9.764960
9.795709
9.889235
9.817489
9.853362
9.895640
9.845675
9.854643
9.886672
9.809802
9.895640
9.841831
9.918702
9.966105
10.183313
10.153846
10.162814
10.042384
10.217905
10.284526
10.178188
10.156408
10.171782
10.260184
10.125660
10.048790
10.042384
10.109005
10.110286
10.002667
9.942452
10.089787
10.062882
9.880956
9.850207
9.943733
10.078257
10.082100
10.133348
10.175626
10.251216
10.115411
9.945014
9.797679
9.727214
9.519664
9.505570
9.573473
9.611908
9.517101
9.414607
9.367796
9.501038
9.613782
9.621469
9.666309
9.785460
9.890515
9.921264
9.905890
9.905890
9.940481
10.047508
9.882236
9.819459
9.806647
9.816896
9.742588
9.805367
9.804085
9.719527
9.464573
9.453042
9.312705
8.901447
8.592354
8.377115
8.445688
8.030587
7.828161
7.555373
7.531031
7.314512
7.063464
6.791854
6.609068
6.676970
6.670564
6.336177
6.413398
5.985485
6.025201
6.212253
6.413398
6.122571
5.825338
5.751577
5.615772
5.818198
5.983470
6.012937
5.783607
5.709298
5.814355
5.736203
5.617054
5.508153
5.455625
5.532496
5.547870
5.542745
5.742609
5.878414
5.809230
5.959128
6.035998
6.048810
5.904037
5.982189
5.919411
5.896350
5.819479
5.865602
5.823323
5.752858
5.608085
5.660614
5.577337
5.641396
5.561963
5.714423
5.878414
6.103901
6.143617
6.256361
6.301202
6.512596
6.686289
6.618386
6.567139
6.706788
6.693976
6.462083
6.526142
6.669633
6.832343
6.900245
7.060392
7.266312
7.338058
7.168942
7.188159
7.224032
6.733342
6.706437
6.837117
6.784589
6.752560
6.322084
6.485144
6.492831
6.686289
6.770846
6.811844
6.834905
6.916901
6.894770
6.985734
6.857616
6.668002
6.284930
5.980360
6.008546
6.276312
6.386493
6.386493
6.218659
6.203285
6.171256
6.345496
6.482582
6.606856
6.549203
6.948930
6.922956
6.401517
5.911177
6.098776
6.011656
5.982189
5.951441
5.684956
5.599117
5.463312
5.345444
5.394700
5.688090
5.835425
5.576627
5.854643
5.978917
6.053935
6.244830
6.212801
6.276860
6.292233
6.333231
6.273016
6.289671
6.317857
6.444694
6.422366
6.312185
5.834306
5.444095
5.341600
5.690652
6.025039
6.298640
6.094933
5.952722
5.820761
5.392848
5.935357
5.905318
5.792575
5.560682
5.519684
5.586305
5.618335
5.599117
5.756702
5.551713
5.497904
5.399253
5.372920
5.330641
5.320392
5.198680
5.390857
5.448510
5.490788
5.194837
5.310143
5.267864
5.271708
5.260177
5.376764
5.287081
5.126935
4.927071
4.800234
4.672559
4.557253
4.444510
4.336891
4.348738
4.380768
4.465325
4.533228
4.552445
4.274430
4.276992
4.366675
4.489668
4.736935
5.007263
5.120971
5.154282
5.332366
5.472013
5.590720
5.525380
5.497194
5.551004
5.497194
5.012909
4.868136
4.805801
4.555972
4.990291
5.126096
5.282399
5.413079
4.997536
4.857887
5.144032
5.525823
5.652217
5.754711
5.799552
5.599689
5.666310
5.676559
5.618906
5.392138
5.398544
5.376764
5.369077
5.358827
5.225585
5.247365
5.431854
5.670153
5.789303
5.975073
6.087245
6.199989
6.340919
6.394728
6.456224
6.251970
5.972673
5.976517
6.218659
5.829181
5.568369
5.647802
5.391566
5.807239
5.837987
6.060912
6.462630
6.538953
6.606856
6.679883
6.726005
6.715756
6.723443
6.777252
6.836186
6.818250
6.964304
7.101040
7.229157
7.266312
7.284248
7.243250
7.349588
7.368805
7.306028
7.409803
7.502908
7.641275
7.679710
7.742488
7.707896
7.760424
7.844982
7.829608
7.889823
7.973100
8.070406
7.982005
7.985848
8.017878
8.055032
7.998661
8.005066
8.134465
8.281800
8.335609
8.307424
8.448354
8.478999
8.471312
8.545620
8.582774
8.666051
8.676300
8.750608
8.808262
8.901788
8.968409
9.026672
9.006173
9.013861
8.954926
9.148384
9.241910
9.335436
9.409744
9.432805
9.385402
9.472522
9.552285
9.562534
9.592002
9.583034
9.494632
9.270426
9.747024
9.932795
10.022477
10.219186
10.344742
10.416488
10.397270
10.436986
10.105162
10.025728
10.029572
10.229436
10.381896
10.372928
10.406238
10.202531
10.558698
10.683407
10.498918
10.803838
10.902488
10.944767
10.982251
10.987375
11.120618
11.112931
11.251298
11.291015
11.297421
11.164178
11.273078
11.233361
11.147523
11.191083
11.202614
11.356355
11.405040
11.414007
11.289734
11.279484
11.271797
11.481910
11.706573
11.741164
11.475961
11.305565
11.071109
10.923774
11.134711
11.011718
10.842603
10.772138
11.162897
11.266672
11.373010
11.374291
11.411446
11.494721
11.714260
11.742446
11.900030
11.875689
11.901312
11.946153
12.043361
12.093327
12.181727
12.212476
12.127918
12.176603
12.267567
12.179166
11.974177
11.638509
12.358530
12.468711
12.626568
12.771341
12.694470
12.790559
12.816182
12.858461
12.941738
12.916114
12.836681
12.685502
12.583008
12.693190
12.741874
12.780310
12.706001
12.539448
12.548416
12.739312
12.934051
13.073699
13.176805
13.256239
13.313891
13.349765
13.253676
13.122996
13.447134
13.348483
13.208836
13.226771
13.242146
12.862917
12.358133
12.252464
12.722656
12.966080
13.116590
13.267769
13.188336
13.320297
13.431760
13.435603
13.465071
13.565693
13.541350
13.560568
13.424764
13.336362
13.291521
13.155716
12.900762
12.948756
13.224209
13.559877
13.105750
13.442699
13.769400
13.792461
13.925703
13.338924
13.834740
13.796305
13.618221
13.688685
13.638720
13.532382
13.515727
13.565693
13.476010
13.415795
13.446544
13.368392
13.383766
13.312020
13.323550
13.263335
13.137780
13.353018
13.455512
13.575942
13.718153
13.673311
13.510602
13.515727
13.606690
13.668187
13.599004
13.586192
13.600285
13.191589
13.340206
13.473448
13.370954
13.394015
13.288959
13.178778
13.139061
13.158278
13.127530
13.019912
13.067315
13.050660
13.009662
12.934072
12.887259
12.847544
13.080717
13.210116
13.254957
13.288268
13.316454
13.327985
13.297236
13.257520
13.289549
13.294674
13.212679
13.057656
13.074311
13.057656
12.973099
12.928257
12.891104
12.919290
12.843699
12.832170
12.778359
12.900071
12.982067
13.062781
13.110185
13.249833
13.276737
13.220366
13.078156
13.120434
13.032033
13.011534
12.937225
12.991035
12.965411
12.850105
12.919290
12.948756
13.003847
12.979505
12.930820
12.830888
12.891104
12.795015
12.633587
12.906477
12.996160
12.961568
13.014096
12.985910
13.043563
13.053813
13.041001
13.015377
12.953881
12.924414
12.938507
12.546467
12.668179
12.757861
12.893665
12.925695
12.882135
12.942350
12.877010
13.061500
13.017940
13.185774
13.233177
13.204991
13.151182
13.085842
12.905196
12.700208
12.522124
12.365821
12.024415
12.325492
12.527918
12.857180
12.817464
12.808496
12.784153
12.739312
12.858461
12.967361
13.155025
13.163994
13.284425
13.330547
13.281862
13.212679
13.217803
13.212679
13.203711
13.203711
13.203711
13.157588
13.180649
13.117871
13.007690
12.866761
12.906477
12.909039
12.836013
12.795015
12.789890
12.795015
12.693802
12.702770
12.792453
12.827044
12.812951
12.795015
12.857793
12.887259
12.816795
12.812951
12.814233
12.760424
12.779641
12.766829
12.829607
12.953881
13.052531
13.065343
13.110185
13.165276
13.222928
13.239583
13.229334
13.197305
13.258801
13.128121
13.026908
12.989754
12.983348
12.939788
12.889822
12.834731
12.893665
12.937225
12.903915
12.866761
13.019221
13.153745
13.158869
13.165276
13.219085
13.225491
13.143496
13.156307
13.112747
13.170400
13.285706
13.252396
13.262645
12.739924
12.884697
12.942350
12.834731
12.885979
12.916727
12.951319
12.919290
12.732238
12.443973
12.527918
12.452328
12.353678
12.556104
12.561228
12.530480
12.647067
12.740593
12.723938
12.708564
12.793121
12.780310
12.708564
12.697033
12.713688
12.709845
12.654754
12.586852
12.574040
12.697033
12.709845
12.530480
12.561228
12.713688
12.872554
12.871273
11.824552
11.323339
11.295315
11.997400
12.420027
12.605797
13.107010
13.219085
12.327386
12.128190
12.066694
12.202498
12.349834
11.962918
12.053883
12.073100
12.112816
12.073100
12.178156
12.483076
12.194812
11.827114
11.402772
11.331188
11.505428
10.912243
10.467218
10.633771
10.922036
11.201332
11.456286
11.586143
11.601517
12.105019
12.605797
13.010921
12.891104
13.189617
13.327985
12.429879
12.717532
12.499732
12.656035
12.488201
12.570196
13.082667
13.317735
13.233177
13.180649
13.203711
13.229334
13.608562
13.996168
14.068734
14.154572
14.227600
14.242973
14.280128
14.309595
14.144323
14.208382
13.783031
13.747158
13.938054
13.465300
13.593879
14.016667
13.925241
13.898337
13.881681
14.258348
14.152010
14.178915
14.200695
14.354436
14.433869
13.957272
13.914992
13.913712
13.856058
13.852215
13.927804
14.036704
14.249380
14.376216
14.453087
14.608105
14.654227
14.629885
14.611949
14.718287
14.764409
14.910462
14.761847
15.105202
15.353652
15.363901
15.348527
15.319060
15.366464
15.369026
15.334435
15.276781
15.089729
15.003890
15.080761
15.155069
15.021827
14.870648
14.870648
14.331273
13.923957
14.597859
14.916868
15.111608
15.584264
14.851171
14.853992
15.160194
15.217847
15.312654
15.462552
15.191963
15.649343
15.434106
15.180432
15.421294
15.072814
15.621158
16.043945
16.369766
16.495321
16.568367
16.271133
16.296757
16.228855
15.859876
15.593372
15.565187
15.642057
15.730458
15.748395
15.791955
15.698429
15.708678
15.680492
15.652307
15.639495
15.772738
15.753520
15.571592
15.593372
15.642057
15.544688
15.494722
15.478066
15.500727
15.343142
15.275240
15.541724
15.936327
15.860738
15.838958
15.818459
15.612189
15.049752
15.095875
15.051034
15.316237
15.186838
14.935728
15.148664
15.281906
15.352370
15.351089
15.362620
15.366464
15.235784
14.939832
15.023108
14.889866
14.956487
15.080761
15.129446
15.123040
15.079480
15.067949
15.011578
15.003890
15.010297
15.024389
14.966737
14.978267
15.003890
14.925738
14.953924
14.997484
15.014140
14.943675
14.934707
15.162756
15.279344
15.178130
15.166600
15.269094
15.225534
15.212723
15.187099
15.057700
14.771997
14.614412
14.414549
14.692662
14.834873
14.814375
14.654227
14.617073
14.718287
14.769533
14.606824
14.528672
14.154569
14.122539
14.073854
14.232720
14.369806
14.274999
14.450521
14.428741
14.436427
14.433865
14.412085
14.359557
14.313435
14.257063
14.231439
14.063605
14.045669
14.041825
14.068729
13.979047
14.044387
14.052074
14.193004
14.212221
14.267312
14.282686
14.314715
14.340339
14.283967
14.171224
14.104603
14.099478
14.062324
14.037981
13.954705
13.888088
13.740752
13.752283
13.710004
13.663882
13.570356
13.531920
13.496048
13.487080
13.475549
13.408928
13.428607
13.459355
13.486259
13.492665
13.509321
13.556725
13.573380
13.590035
13.593879
13.572099
13.541350
13.549038
13.543913
13.591316
13.560568
13.540070
13.517008
13.524695
13.520852
13.550319
13.558005
13.559287
13.546475
13.558005
13.531101
13.322269
13.564412
13.665625
13.610534
13.595160
13.596441
13.555444
13.414514
13.405546
13.405546
13.376079
13.268460
13.240273
13.230024
13.177496
12.998132
12.917418
12.985910
12.984630
12.916727
12.919290
12.905196
12.879573
12.796296
12.757861
12.748893
12.756579
12.727113
12.639993
12.534936
12.327386
12.173032
12.132034
12.187124
12.137158
12.092318
12.091036
12.135878
12.312680
12.434392
12.440798
12.461296
12.493326
12.474108
12.406206
12.260152
12.229403
12.293462
12.123066
12.151252
12.135878
12.053883
12.000072
11.965481
11.965481
11.969324
11.923203
11.673100
11.618010
11.551389
11.550108
11.428396
11.369623
11.364498
11.399091
11.263286
11.162072
11.162072
11.144136
10.935305
10.829791
10.750358
10.610710
10.441594
10.311866
10.316991
10.229871
10.064598
9.942886
9.939890
9.837396
9.772056
9.592690
9.593972
9.509415
9.412045
9.212773
9.179462
9.284519
9.331923
9.334485
9.357546
9.412637
9.456197
9.138465
9.014191
8.975756
8.928352
8.912647
8.930584
8.931866
8.838339
8.775561
8.676911
8.696129
8.703815
8.676911
8.680755
8.635914
8.685880
8.657694
8.447580
8.546902
8.625053
8.660926
8.718579
8.750608
8.836448
8.835166
8.844134
8.786482
8.685268
8.683988
8.530246
8.511028
8.323977
8.298353
8.120270
8.088240
7.938343
7.929374
7.926812
7.956279
7.879408
7.705271
7.686053
7.693740
7.761642
7.791110
7.742425
7.615589
7.572029
7.563060
7.500283
7.400351
7.227455
7.214643
7.222330
7.004530
6.782887
6.583444
6.537322
6.464295
6.310554
6.396743
6.451833
6.483863
6.610699
6.834905
7.039894
7.407241
7.551592
7.648962
7.618214
7.508032
7.488815
7.534937
7.464472
7.438849
7.397851
7.323543
7.335073
7.249235
7.190300
7.100618
7.145459
7.048090
7.001967
6.995562
7.019904
7.023747
6.967376
7.030153
7.067307
6.971219
6.971219
6.989156
7.035278
6.999405
6.967376
7.000686
6.817478
6.628285
6.541165
6.606505
6.697469
6.668002
6.678251
6.612911
6.536041
6.456608
6.283649
6.158444
6.182786
6.208410
6.232752
6.313466
6.117446
6.153319
6.191754
6.251970
6.014952
6.067480
6.085417
6.003421
5.797152
5.801543
5.938629
5.911724
5.955284
6.024468
6.133368
6.234581
6.094933
6.065465
5.787450
5.751577
5.574775
5.509435
5.563244
5.492779
5.391566
5.410074
5.390857
5.403668
5.226866
5.375483
5.494632
5.624031
5.620187
5.789303
5.835425
5.940482
5.834854
5.777201
5.675988
5.673425
5.542745
5.549151
5.583743
5.626022
5.517122
5.403097
5.394700
5.407512
5.406231
5.317830
5.385732
5.447228
5.337047
5.271708
5.138465
4.816890
4.709713
4.848081
4.956981
4.740462
4.762242
4.639249
4.449635
4.397106
4.444827
4.320552
4.207809
4.364112
4.379487
4.358988
4.416641
4.412797
4.264181
4.145031
4.141188
4.100190
4.054068
4.133501
4.220621
4.091222
4.293648
4.298772
4.406391
4.292367
4.374362
4.362832
4.411516
4.314147
4.280836
4.137344
4.036131
4.016913
3.977197
3.925950
3.896483
3.880460
3.870211
3.970143
4.117478
4.322466
4.527454
4.815087
4.871459
4.927830
4.908296
4.917264
4.860892
4.814770
4.613625
4.486789
4.295893
4.141188
4.011789
3.923388
3.863805
3.867649
3.813839
3.765154
3.774122
3.784372
3.789497
3.793340
3.785653
4.038045
4.205879
4.316061
4.454427
4.483262
4.521698
4.574225
4.727967
4.821493
4.912456
5.024883
5.129940
5.081254
5.017196
4.996697
5.049225
4.924951
4.910858
4.921107
4.868579
4.821176
4.871141
4.930076
4.983885
4.951856
4.972354
4.960824
5.014634
4.963387
5.019758
5.132502
5.223465
5.208091
5.197842
5.199123
5.196560
5.151720
5.030007
5.044100
4.940325
4.908296
4.808364
4.883954
4.908296
5.028727
4.944169
5.009509
5.077411
5.144032
5.246526
5.267025
5.392581
5.384893
5.306742
5.332366
5.395143
5.302898
5.251651
5.178624
5.140189
5.076130
4.837831
4.740462
4.650779
4.571346
4.514975
4.589283
4.579033
4.559816
4.545722
4.540598
4.479102
4.500882
4.443229
4.315111
4.293648
4.287242
4.298772
4.355145
4.401267
4.580631
4.754871
4.903488
4.997014
5.272150
5.422048
5.376764
5.325517
5.389575
5.330641
5.069282
5.073125
5.015472
4.882229
4.768648
4.652061
4.618750
4.548285
4.509850
4.612344
4.664872
4.613625
4.559816
4.566222
4.586720
4.545722
4.503444
4.530349
4.582877
4.639249
4.703308
4.710995
4.596970
4.529068
4.579033
4.644373
4.736618
4.810926
4.867298
4.995416
4.971074
4.868579
4.903171
4.946731
4.967230
4.826301
4.813488
4.710995
4.655904
4.602095
4.536755
4.498319
4.441947
4.625155
4.786584
4.921107
4.969792
5.173500
5.226027
5.281118
5.299055
5.407955
5.356708
5.366957
5.377206
5.439984
5.410074
5.299893
5.356265
5.436979
5.576627
5.544598
5.599689
5.643249
5.711151
5.654779
5.563816
5.663747
5.850799
5.923826
6.010375
6.096214
6.185896
6.116713
6.041123
5.941191
5.930942
5.813074
5.690081
5.658051
5.695205
5.731078
5.564525
