1531990494.000000, IBI
14.985061,1.062549
16.110112,1.125051
17.110158,1.000046
18.188333,1.078174
19.250881,1.062549
20.157173,0.906291
21.063464,0.906291
22.110387,1.046923
23.032304,0.921917
24.016724,0.984420
25.157402,1.140677
33.017136,0.953169
33.892176,0.875040
34.798468,0.906291
35.767262,0.968794
36.704805,0.937543
37.689225,0.984420
38.658020,0.968794
39.579937,0.921917
40.548731,0.968794
41.408145,0.859414
42.267560,0.859414
43.189477,0.921917
44.095768,0.906291
45.048937,0.953169
46.048983,1.000046
46.939649,0.890666
47.877192,0.937543
48.830360,0.953169
49.721026,0.890666
50.627317,0.906291
51.439855,0.812537
52.299269,0.859414
53.189935,0.890666
54.096226,0.906291
54.955641,0.859414
55.736926,0.781286
56.565089,0.828163
57.330749,0.765660
58.080784,0.750034
58.815192,0.734409
59.549601,0.734409
60.315261,0.765660
61.143424,0.828163
61.877832,0.734409
62.549738,0.671906
63.268521,0.718783
80.675568,1.031297
81.753742,1.078174
82.753788,1.000046
83.753834,1.000046
84.816382,1.062549
85.832054,1.015671
86.878977,1.046923
88.082157,1.203180
89.191583,1.109426
90.363511,1.171929
91.316680,0.953169
92.269849,0.953169
93.316772,1.046923
94.176186,0.859414
99.723315,1.015671
100.817115,1.093800
101.942166,1.125051
103.035966,1.093800
104.051638,1.015671
105.145438,1.093800
106.301741,1.156303
107.254910,0.953169
108.270581,1.015671
109.348755,1.078174
110.380053,1.031297
111.458227,1.078174
112.552027,1.093800
113.598950,1.046923
114.802130,1.203180
115.786550,0.984420
116.911602,1.125051
118.083530,1.171929
119.067950,0.984420
120.177376,1.109426
121.302428,1.125051
122.427479,1.125051
123.615033,1.187554
124.599453,0.984420
125.630751,1.031297
126.771428,1.140677
127.802725,1.031297
128.896525,1.093800
129.943448,1.046923
214.166053,1.062549
215.087970,0.921917
216.103642,1.015671
217.197442,1.093800
218.166236,0.968794
219.291288,1.125051
220.541345,1.250057
221.635145,1.093800
222.775822,1.140677
223.963377,1.187554
225.010300,1.046923
226.197854,1.187554
227.479163,1.281309
228.760471,1.281309
230.073031,1.312560
231.276212,1.203180
232.604397,1.328186
233.916957,1.312560
235.120137,1.203180
236.401446,1.281309
237.745258,1.343812
238.932812,1.187554
240.260998,1.328186
241.573558,1.312560
242.886118,1.312560
244.151801,1.265683
245.339355,1.187554
246.698792,1.359437
247.792593,1.093800
249.027024,1.234432
250.355210,1.328186
251.699021,1.343812
253.027207,1.328186
254.230387,1.203180
255.558573,1.328186
256.761753,1.203180
258.027436,1.265683
259.339996,1.312560
260.590053,1.250057
261.824485,1.234432
262.933911,1.109426
264.246471,1.312560
265.590282,1.343812
266.730959,1.140677
267.949765,1.218806
269.293577,1.343812
270.449880,1.156303
271.778065,1.328186
273.137503,1.359437
274.309431,1.171929
275.590740,1.281309
276.872049,1.281309
278.090854,1.218806
279.403414,1.312560
280.559717,1.156303
281.747272,1.187554
282.919200,1.171929
284.075503,1.156303
285.434941,1.359437
286.638121,1.203180
287.872552,1.234432
289.060107,1.187554
290.310164,1.250057
291.591472,1.281309
292.669647,1.078174
293.841575,1.171929
294.997878,1.156303
296.169807,1.171929
297.372987,1.203180
298.607419,1.234432
299.841850,1.234432
300.873147,1.031297
301.998199,1.125051
302.998245,1.000046
304.107670,1.109426
305.295225,1.187554
306.232768,0.937543
307.123433,0.890666
308.076602,0.953169
309.217279,1.140677
310.232951,1.015671
311.420505,1.187554
312.498679,1.078174
313.639357,1.140677
314.842537,1.203180
315.920711,1.078174
317.061388,1.140677
318.217691,1.156303
319.311491,1.093800
320.467794,1.156303
321.577220,1.109426
322.702271,1.125051
323.889826,1.187554
324.952374,1.062549
326.171180,1.218806
327.233729,1.062549
328.358780,1.125051
329.546335,1.187554
330.577632,1.031297
331.796438,1.218806
332.983992,1.187554
334.155921,1.171929
335.343475,1.187554
336.437275,1.093800
337.640455,1.203180
338.796758,1.156303
339.906184,1.109426
341.062487,1.156303
342.000030,0.937543
343.109456,1.109426
344.265759,1.156303
345.234553,0.968794
346.359604,1.125051
347.500282,1.140677
348.437824,0.937543
349.328490,0.890666
350.156653,0.828163
351.031693,0.875040
351.844230,0.812537
352.719270,0.875040
353.547433,0.828163
354.406848,0.859414
355.281888,0.875040
356.141302,0.859414
357.000716,0.859414
357.922634,0.921917
358.844551,0.921917
359.735217,0.890666
360.672760,0.937543
361.500922,0.828163
362.375962,0.875040
363.219751,0.843789
364.157294,0.937543
365.141714,0.984420
366.188637,1.046923
367.204309,1.015671
368.298109,1.093800
369.360657,1.062549
370.407580,1.046923
371.517006,1.109426
372.563929,1.046923
373.517097,0.953169
374.579646,1.062549
375.532815,0.953169
376.673492,1.140677
377.829795,1.156303
378.876718,1.046923
379.986144,1.109426
381.064318,1.078174
382.017487,0.953169
382.892527,0.875040
383.845695,0.953169
384.767612,0.921917
385.908290,1.140677
387.111470,1.203180
388.205270,1.093800
389.299070,1.093800
390.455373,1.156303
391.564799,1.109426
392.689850,1.125051
393.908656,1.218806
394.955579,1.046923
396.111882,1.156303
397.221308,1.109426
398.299482,1.078174
399.471411,1.171929
400.721468,1.250057
401.987151,1.265683
403.284085,1.296934
404.440388,1.156303
405.581065,1.140677
406.815497,1.234432
407.940548,1.125051
409.174980,1.234432
410.409411,1.234432
411.596966,1.187554
412.831397,1.234432
413.940823,1.109426
415.144003,1.203180
416.300306,1.156303
417.409732,1.109426
418.769169,1.359437
419.894220,1.125051
421.128652,1.234432
422.331832,1.203180
423.456883,1.125051
424.628812,1.171929
425.675735,1.046923
426.878915,1.203180
428.238352,1.359437
429.379030,1.140677
430.675964,1.296934
431.879144,1.203180
433.097950,1.218806
434.269878,1.171929
435.285550,1.015671
436.379350,1.093800
437.551279,1.171929
438.457570,0.906291
439.426364,0.968794
445.520393,1.156303
446.707948,1.187554
447.848625,1.140677
448.973676,1.125051
450.114354,1.140677
451.270657,1.156303
452.364457,1.093800
453.520760,1.156303
454.411425,0.890666
455.677108,1.265683
456.692780,1.015671
457.833457,1.140677
458.864754,1.031297
459.989806,1.125051
461.177360,1.187554
462.177406,1.000046
463.318083,1.140677
464.411883,1.093800
465.583812,1.171929
466.786992,1.203180
467.880792,1.093800
468.990218,1.109426
470.130895,1.140677
471.240321,1.109426
472.365372,1.125051
473.615429,1.250057
474.787358,1.171929
475.990538,1.203180
477.162467,1.171929
478.193764,1.031297
479.365693,1.171929
480.506370,1.140677
481.678298,1.171929
482.912730,1.234432
483.912776,1.000046
485.115956,1.203180
486.287884,1.171929
487.522316,1.234432
488.741122,1.218806
489.772419,1.031297
490.834968,1.062549
492.069399,1.234432
493.256953,1.187554
494.413256,1.156303
495.491431,1.078174
496.616482,1.125051
497.772785,1.156303
498.819708,1.046923
500.022888,1.203180
501.257320,1.234432
502.335494,1.078174
503.507423,1.171929
504.569971,1.062549
505.585643,1.015671
506.648191,1.062549
507.585734,0.937543
508.570154,0.984420
509.679580,1.109426
510.726503,1.046923
511.664046,0.937543
512.523460,0.859414
513.429752,0.906291
514.445423,1.015671
515.554849,1.109426
520.601955,1.062549
521.680130,1.078174
522.648924,0.968794
523.727098,1.078174
524.867775,1.140677
525.914698,1.046923
527.039750,1.125051
528.242930,1.203180
533.618176,1.234432
534.711976,1.093800
535.883905,1.171929
537.071459,1.187554
538.180885,1.109426
539.337188,1.156303
540.446614,1.109426
541.493536,1.046923
542.634214,1.140677
543.728014,1.093800
544.821814,1.093800
545.993742,1.171929
547.040665,1.046923
548.118840,1.078174
549.259517,1.140677
550.259563,1.000046
551.290860,1.031297
552.353409,1.062549
553.509712,1.156303
554.400377,0.890666
555.494177,1.093800
556.416095,0.921917
557.572397,1.156303
558.713075,1.140677
559.744372,1.031297
560.838172,1.093800
561.916346,1.078174
562.947644,1.031297
564.072695,1.125051
565.150869,1.078174
566.197792,1.046923
567.291592,1.093800
568.322890,1.031297
569.385438,1.062549
570.572993,1.187554
571.635541,1.062549
572.791844,1.156303
573.979398,1.187554
575.026321,1.046923
576.198250,1.171929
577.370179,1.171929
578.463979,1.093800
579.651533,1.187554
580.807836,1.156303
581.948513,1.140677
583.151693,1.203180
584.307996,1.156303
585.417422,1.109426
586.542474,1.125051
587.542519,1.000046
588.558191,1.015671
589.683242,1.125051
590.761417,1.078174
591.933345,1.171929
593.152151,1.218806
594.230325,1.078174
595.402254,1.171929
596.433551,1.031297
597.480474,1.046923
598.652403,1.171929
599.746203,1.093800
600.871254,1.125051
602.058809,1.187554
603.090106,1.031297
604.230783,1.140677
605.433963,1.203180
606.559015,1.125051
607.762195,1.203180
609.012252,1.250057
610.106052,1.093800
611.277981,1.171929
612.512412,1.234432
613.668715,1.156303
614.793767,1.125051
616.043824,1.250057
617.075121,1.031297
618.184547,1.109426
619.387727,1.203180
620.465901,1.078174
621.544076,1.078174
622.700379,1.156303
623.762927,1.062549
624.903605,1.140677
625.903650,1.000046
626.794316,0.890666
627.872490,1.078174
636.482260,1.093800
637.654188,1.171929
638.716737,1.062549
639.904291,1.187554
640.998091,1.093800
642.138768,1.140677
643.388826,1.250057
644.513877,1.125051
645.607677,1.093800
646.779606,1.171929
647.857780,1.078174
649.060960,1.203180
650.326643,1.265683
651.436069,1.109426
652.592372,1.156303
653.795552,1.203180
654.920604,1.125051
656.170661,1.250057
657.295712,1.125051
658.420764,1.125051
659.623944,1.203180
660.733370,1.109426
661.967801,1.234432
663.170981,1.203180
664.327284,1.156303
665.499213,1.171929
666.577387,1.078174
667.686813,1.109426
668.921244,1.234432
670.077547,1.156303
671.202599,1.125051
672.452656,1.250057
673.483953,1.031297
674.765262,1.281309
675.765308,1.000046
682.890634,1.203180
684.218820,1.328186
685.562631,1.343812
686.750185,1.187554
687.937740,1.187554
689.125294,1.187554
690.187843,1.062549
691.344146,1.156303
692.500449,1.156303
693.562997,1.062549
694.781803,1.218806
696.031860,1.250057
697.250666,1.218806
698.422595,1.171929
699.500769,1.078174
700.750826,1.250057
701.844626,1.093800
702.969678,1.125051
704.204109,1.234432
705.297909,1.093800
706.485464,1.187554
707.704270,1.218806
708.891824,1.187554
710.141881,1.250057
711.266933,1.125051
712.438861,1.171929
713.642041,1.203180
714.720216,1.078174
715.892144,1.171929
717.095325,1.203180
718.236002,1.140677
719.407930,1.171929
720.517356,1.109426
721.704911,1.187554
722.939342,1.234432
723.908136,0.968794
725.017562,1.109426
726.142614,1.125051
727.017654,0.875040
727.877068,0.859414
729.017745,1.140677
730.345931,1.328186
731.611614,1.265683
732.814794,1.203180
733.971097,1.156303
735.111774,1.140677
736.221200,1.109426
737.346251,1.125051
738.471303,1.125051
739.611980,1.140677
740.596400,0.984420
741.643323,1.046923
742.846503,1.203180
743.877800,1.031297
744.940349,1.062549
746.143529,1.203180
747.206078,1.062549
748.362381,1.156303
749.503058,1.140677
750.612484,1.109426
751.784412,1.171929
752.737581,0.953169
753.753253,1.015671
763.284939,1.125051
764.378739,1.093800
765.394410,1.015671
766.488210,1.093800
767.628888,1.140677
768.660185,1.031297
769.738359,1.078174
770.832159,1.093800
771.816579,0.984420
772.879128,1.062549
774.035431,1.156303
775.051102,1.015671
776.160528,1.109426
777.301205,1.140677
778.363754,1.062549
779.488806,1.125051
780.566980,1.078174
781.613903,1.046923
782.754580,1.140677
783.754626,1.000046
784.801549,1.046923
785.973477,1.171929
787.036026,1.062549
788.129826,1.093800
789.301755,1.171929
790.333052,1.031297
791.426852,1.093800
792.551903,1.125051
793.630078,1.078174
794.817632,1.187554
795.880181,1.062549
797.067735,1.187554
798.270915,1.203180
799.395967,1.125051
809.333922,0.812537
810.115207,0.781286
818.334334,0.703157
818.974988,0.640654
819.787525,0.812537
820.615688,0.828163
821.334471,0.718783
822.100131,0.765660
822.818914,0.718783
823.490820,0.671906
824.193977,0.703157
824.865883,0.671906
825.506537,0.640654
826.147191,0.640654
826.803471,0.656280
827.459751,0.656280
828.116031,0.656280
828.803563,0.687531
829.537971,0.734409
830.366134,0.828163
831.147420,0.781286
832.006835,0.859414
832.928752,0.921917
833.928797,1.000046
908.463459,0.828163
935.230309,0.578151
935.808461,0.578151
943.183798,0.671906
944.121341,0.937543
953.324888,0.625029
1274.448962,0.421894
1274.886482,0.437520
1275.339628,0.453146
1463.332608,0.796911
1481.677197,0.640654
1590.104036,0.656280
1590.697813,0.593777
1591.432222,0.734409
1833.349545,0.921917
1956.730192,0.453146
2270.885197,0.843789
2271.697735,0.812537
2272.572775,0.875040
2273.494692,0.921917
2274.307229,0.812537
2275.119766,0.812537
2275.932303,0.812537
2276.791718,0.859414
2304.261725,0.562526
2304.902380,0.640654
2305.527408,0.625029
2306.152437,0.625029
2319.090529,0.718783
2319.621803,0.531274
2320.262458,0.640654
2320.840609,0.578151
2321.418761,0.578151
2321.996912,0.578151
2322.559438,0.562526
2323.121964,0.562526
2323.715741,0.593777
2324.262641,0.546900
2324.856418,0.593777
2325.465821,0.609403
2326.090849,0.625029
2326.731504,0.640654
2327.372158,0.640654
2345.841753,0.562526
2346.357402,0.515649
2346.935554,0.578151
2347.451202,0.515649
2348.076231,0.625029
2351.451385,0.578151
2351.967034,0.515649
2352.513934,0.546900
2381.452759,0.531274
2381.952781,0.500023
2382.452804,0.500023
2383.030956,0.578151
2383.530979,0.500023
2384.015376,0.484397
2384.531024,0.515649
2385.046673,0.515649
2385.546696,0.500023
2395.719037,0.546900
2396.250311,0.531274
2487.066968,0.453146
2487.566991,0.500023
2488.035762,0.468771
2501.192615,0.468771
2501.661386,0.468771
2502.114532,0.453146
2510.286781,0.500023
2510.708675,0.421894
2524.662439,0.437520
2557.960838,0.484397
2558.445235,0.484397
2590.165437,0.484397
2590.665460,0.500023
2591.149857,0.484397
2591.634254,0.484397
2592.134277,0.500023
2592.649926,0.515649
2763.423368,0.390643
2763.798385,0.375017
2764.220279,0.421894
2764.626548,0.406269
2765.017191,0.390643
2765.439085,0.421894
2765.829728,0.390643
2778.861575,0.484397
2779.330346,0.468771
2779.814743,0.484397
2780.314766,0.500023
2780.783538,0.468771
2781.314812,0.531274
2781.767958,0.453146
2782.267981,0.500023
2858.724605,0.515649
2859.255880,0.531274
2859.802780,0.546900
2860.334054,0.531274
2860.880954,0.546900
2861.459105,0.578151
2862.052883,0.593777
2862.662286,0.609403
2863.287314,0.625029
2863.912343,0.625029
2864.521746,0.609403
2865.131149,0.609403
2865.740551,0.609403
3142.331337,0.609403
3142.862612,0.531274
3346.512558,0.625029
3387.717570,0.750034
3388.405101,0.687531
3389.061381,0.656280
3389.702035,0.640654
3390.358315,0.656280
3391.030221,0.671906
3391.686501,0.656280
3392.389658,0.703157
3393.077190,0.687531
3393.842850,0.765660
3430.157012,0.796911
3431.063304,0.906291
3431.860215,0.796911
3432.688378,0.828163
3433.500915,0.812537
3445.751476,0.765660
3446.564013,0.812537
3447.392176,0.828163
3448.157836,0.765660
3448.954748,0.796911
3449.657905,0.703157
3450.361062,0.703157
3451.017342,0.656280
3451.736125,0.718783
3452.642416,0.906291
3453.408077,0.765660
3454.251865,0.843789
3460.502151,0.718783
3461.236560,0.734409
3461.892840,0.656280
3462.564746,0.671906
3463.252277,0.687531
3463.924183,0.671906
3464.658592,0.734409
3465.236743,0.578151
3465.939900,0.703157
3466.580554,0.640654
3467.174332,0.593777
3467.799360,0.625029
3468.471266,0.671906
3527.192704,0.734409
3527.817733,0.625029
3528.567767,0.750034
3529.255298,0.687531
3603.258686,0.781286
3604.055597,0.796911
3604.758754,0.703157
3605.508789,0.750034
3647.057566,0.937543
3647.901354,0.843789
3648.667014,0.765660
3649.526429,0.859414
3650.370217,0.843789
3656.729883,0.859414
3657.589298,0.859414
3658.464338,0.875040
3659.323752,0.859414
3660.105038,0.781286
3671.261799,0.640654
3688.856354,0.578151
3689.528260,0.671906
3690.215791,0.687531
3701.700692,0.796911
3702.544481,0.843789
3703.497649,0.953169
3704.357064,0.859414
3718.842102,0.593777
3732.233340,0.671906
3732.936497,0.703157
3733.670905,0.734409
3734.420940,0.750034
3735.155348,0.734409
3735.889757,0.734409
3736.514786,0.625029
3737.077311,0.562526
3737.842971,0.765660
3738.718011,0.875040
3739.483671,0.765660
3740.311834,0.828163
3754.062464,0.859414
3755.015632,0.953169
3756.015678,1.000046
3789.704720,0.750034
3790.329749,0.625029
3790.970403,0.640654
3791.642309,0.671906
3792.345466,0.703157
3793.048623,0.703157
3793.595523,0.546900
3794.251803,0.656280
3794.923709,0.671906
3795.579989,0.656280
3796.220644,0.640654
3802.689690,0.640654
3803.424098,0.734409
3821.456174,0.734409
3822.174957,0.718783
3822.924991,0.750034
3823.784405,0.859414
3824.612568,0.828163
3825.456357,0.843789
3883.146497,0.843789
3893.443844,0.750034
3894.225130,0.781286
3895.037667,0.812537
3895.928333,0.890666
3896.740870,0.812537
3897.553407,0.812537
3898.615956,1.062549
3905.788159,0.890666
3906.678825,0.890666
3907.678870,1.000046
3908.522659,0.843789
3937.367729,0.687531
3938.055261,0.687531
3947.321310,0.718783
3947.946339,0.625029
3948.555742,0.609403
3949.165144,0.609403
3949.821424,0.656280
3950.462079,0.640654
3951.165236,0.703157
3951.884019,0.718783
3952.649679,0.765660
3953.493468,0.843789
3954.462262,0.968794
3955.196671,0.734409
3955.899828,0.703157
3956.618611,0.718783
3957.321768,0.703157
3958.103054,0.781286
3964.415843,0.531274
3982.291661,0.812537
4032.543961,0.734409
4048.294682,0.734409
4085.905779,0.703157
4086.765193,0.859414
4101.125225,0.921917
4101.906511,0.781286
4102.672171,0.765660
4103.390954,0.718783
4104.062860,0.671906
4118.157255,0.765660
4118.876038,0.718783
4158.237215,0.703157
4159.034126,0.796911
4159.815412,0.781286
4164.456249,0.796911
4176.222413,0.734409
4176.925570,0.703157
4183.910265,0.843789
4207.864486,0.796911
4208.614521,0.750034
4209.270801,0.656280
4209.927081,0.656280
4219.771281,0.796911
4220.630696,0.859414
4221.521361,0.890666
4222.302647,0.781286
4223.099559,0.796911
4223.865219,0.765660
4277.820813,0.875040
4278.664602,0.843789
4279.445888,0.781286
4280.242799,0.796911
4287.477505,0.703157
4288.243165,0.765660
4288.993200,0.750034
4289.727608,0.734409
4589.100687,0.671906
4589.725716,0.625029
4590.319493,0.593777
4591.038276,0.718783
4797.078957,0.640654
4898.646106,0.703157
4905.740181,0.656280
4906.365210,0.625029
4907.068367,0.703157
4907.912155,0.843789
4908.693441,0.781286
4909.599733,0.906291
4986.259492,0.671906
4986.947023,0.687531
4987.618929,0.671906
4988.290835,0.671906
4988.978366,0.687531
4989.634646,0.656280
4990.275301,0.640654
4990.915955,0.640654
4991.572235,0.656280
4992.181638,0.609403
5002.182096,0.562526
5002.775873,0.593777
5008.635516,0.765660
5028.964571,0.546900
5029.527097,0.562526
5030.199003,0.671906
5030.714652,0.515649
5031.339680,0.625029
5031.917832,0.578151
5032.511609,0.593777
5033.074135,0.562526
5033.714789,0.640654
5034.308566,0.593777
5034.902343,0.593777
5035.527372,0.625029
5044.277772,0.750034
5044.965304,0.687531
5045.730964,0.765660
5046.559127,0.828163
5047.309161,0.750034
5048.059196,0.750034
5048.793604,0.734409
5049.465510,0.671906
5050.168667,0.703157
5050.965579,0.796911
5051.699987,0.734409
5052.512524,0.812537
5053.356313,0.843789
5054.106347,0.750034
5054.872007,0.765660
5055.606416,0.734409
5056.278322,0.671906
5056.965853,0.687531
5057.684636,0.718783
5058.544050,0.859414
5059.325336,0.781286
5060.184751,0.859414
5060.934785,0.750034
5061.684819,0.750034
5062.372351,0.687531
5063.091134,0.718783
5063.763039,0.671906
5064.450571,0.687531
5065.138102,0.687531
5065.778757,0.640654
5066.435037,0.656280
5074.013509,0.640654
5074.607286,0.593777
5075.247940,0.640654
5075.794840,0.546900
5076.419869,0.625029
5077.076149,0.656280
5077.701177,0.625029
5078.388709,0.687531
5078.982486,0.593777
5079.654392,0.671906
5080.263795,0.609403
5080.810695,0.546900
5081.451349,0.640654
5082.029500,0.578151
5082.592026,0.562526
5083.185803,0.593777
5083.763955,0.578151
5084.388983,0.625029
5085.045264,0.656280
5085.639041,0.593777
5092.201841,0.562526
5098.014607,0.625029
5098.639636,0.625029
5099.280290,0.640654
5099.920944,0.640654
5100.499096,0.578151
5101.092873,0.593777
5101.671025,0.578151
5102.233550,0.562526
5102.796076,0.562526
5103.374228,0.578151
5103.983630,0.609403
5104.593033,0.609403
5105.296191,0.703157
5113.171551,0.625029
5113.796580,0.625029
5114.484111,0.687531
5115.140391,0.656280
5115.734168,0.593777
5116.343571,0.609403
5116.968600,0.625029
5117.546751,0.578151
5118.156154,0.609403
5118.781183,0.625029
5119.359334,0.578151
5119.968737,0.609403
5120.593766,0.625029
5121.234420,0.640654
5121.843823,0.609403
5122.484477,0.640654
5260.115777,0.640654
5260.803309,0.687531
5299.789468,0.640654
5300.414497,0.625029
5301.086403,0.671906
5301.867688,0.781286
5302.711477,0.843789
5303.477137,0.765660
5304.289674,0.812537
5305.211591,0.921917
5306.102257,0.890666
5307.039800,0.937543
5307.821086,0.781286
5308.602372,0.781286
5316.899626,0.953169
5317.587158,0.687531
5331.212782,0.937543
5332.134699,0.921917
5383.543302,0.750034
5384.262085,0.718783
5384.980868,0.718783
5385.637148,0.656280
5386.293428,0.656280
5386.918457,0.625029
5387.559111,0.640654
5423.045110,0.703157
5423.763893,0.718783
5424.607682,0.843789
5425.498348,0.890666
5426.420265,0.921917
5427.248428,0.828163
5442.546003,0.828163
5443.327289,0.781286
5444.202329,0.875040
5445.014866,0.812537
5445.843029,0.828163
5446.702443,0.859414
5447.624361,0.921917
5448.452523,0.828163
5487.391806,0.703157
5488.110589,0.718783
5488.985629,0.875040
5508.580276,0.625029
5509.236556,0.656280
5545.128824,0.640654
5545.816355,0.687531
5546.488261,0.671906
5547.300798,0.812537
5548.222715,0.921917
5549.144633,0.921917
5550.050924,0.906291
5550.925964,0.875040
5566.848568,0.734409
5567.629854,0.781286
5568.286134,0.656280
5568.958040,0.671906
5569.692448,0.734409
5570.520611,0.828163
5571.473780,0.953169
5572.442574,0.968794
5573.208234,0.765660
5574.020771,0.812537
5574.848934,0.828163
5575.677097,0.828163
5576.520886,0.843789
5577.239669,0.718783
5578.005329,0.765660
5600.709493,0.718783
5601.506404,0.796911
5613.288194,0.734409
5614.100731,0.812537
5614.944520,0.843789
5615.788308,0.843789
5616.647722,0.859414
5617.491511,0.843789
5618.272797,0.781286
5619.210340,0.937543
5653.665042,0.843789
5660.118462,0.921917
5661.040380,0.921917
5662.040425,1.000046
5662.915465,0.875040
5663.774880,0.859414
5664.618668,0.843789
5665.540586,0.921917
5666.228117,0.687531
5689.416678,0.687531
5690.104210,0.687531
5690.838619,0.734409
5691.526150,0.687531
5692.260559,0.734409
5692.932464,0.671906
5693.588744,0.656280
5694.307527,0.718783
5722.433815,0.906291
5723.324481,0.890666
5724.183895,0.859414
5754.997805,0.765660
5762.076254,0.734409
5762.841914,0.765660
5763.670077,0.828163
5764.607620,0.937543
5765.420157,0.812537
5766.232695,0.812537
5767.045232,0.812537
5787.233656,0.890666
5788.171199,0.937543
5788.905607,0.734409
5789.655642,0.750034
5790.390050,0.734409
5829.657473,0.609403
5830.454384,0.796911
5831.298173,0.843789
5832.204464,0.906291
5833.079504,0.875040
5833.892042,0.812537
5834.688953,0.796911
5842.783074,0.687531
5843.595611,0.812537
5844.251891,0.656280
5845.001925,0.750034
5845.720708,0.718783
5846.486368,0.765660
5936.021717,0.671906
5936.771751,0.750034
5937.599914,0.828163
5938.584334,0.984420
5939.553128,0.968794
5940.506297,0.953169
5965.194927,0.890666
5965.898084,0.703157
5966.663744,0.765660
5967.335650,0.671906
5968.132562,0.796911
5968.976350,0.843789
5969.835765,0.859414
5973.585936,0.765660
5974.335971,0.750034
5975.132882,0.796911
5975.898542,0.765660
5976.679828,0.781286
5983.961411,1.031297
5984.820826,0.859414
5985.633363,0.812537
6012.900236,0.765660
6013.665896,0.765660
6014.306551,0.640654
6015.072211,0.765660
6015.931625,0.859414
6016.837916,0.906291
6017.650454,0.812537
6018.509868,0.859414
6028.775963,0.921917
6029.729131,0.953169
6030.494792,0.765660
6088.638078,0.890666
6089.466241,0.828163
6090.419410,0.953169
6091.185070,0.765660
6092.060110,0.875040
6092.903898,0.843789
6093.732061,0.828163
6094.622727,0.890666
6095.497767,0.875040
6096.513438,1.015671
6097.404104,0.890666
6098.341647,0.937543
6099.263564,0.921917
6100.060476,0.796911
6100.779259,0.718783
6101.529293,0.750034
6102.326205,0.796911
6144.171870,0.906291
6144.953156,0.781286
6145.828196,0.875040
6146.562604,0.734409
6147.312639,0.750034
6148.062673,0.750034
6148.875210,0.812537
6149.609619,0.734409
6150.406530,0.796911
6151.187816,0.781286
6152.109733,0.921917
6153.047276,0.937543
6154.000445,0.953169
6214.831355,0.750034
6215.597015,0.765660
6216.378300,0.781286
6217.143960,0.765660
6217.956498,0.812537
6218.690906,0.734409
6219.331561,0.640654
6220.065969,0.734409
6236.957367,0.718783
6250.567365,0.750034
6251.364277,0.796911
6252.192440,0.828163
6253.114357,0.921917
6254.036274,0.921917
6271.412070,0.687531
6272.240232,0.828163
6273.115273,0.875040
6332.242979,0.781286
6332.868008,0.625029
6333.571165,0.703157
6334.258696,0.687531
6334.946228,0.687531
6343.368488,0.968794
6344.243528,0.875040
6345.196697,0.953169
6346.056111,0.859414
6346.884274,0.828163
6347.837443,0.953169
6348.649980,0.812537
6349.478143,0.828163
6350.353183,0.875040
6351.275100,0.921917
6352.212643,0.937543
6353.025180,0.812537
6353.947098,0.921917
6354.790886,0.843789
6355.494043,0.703157
6356.259703,0.765660
6370.604110,0.703157
6371.354144,0.750034
6372.166682,0.812537
6372.885464,0.718783
6373.791756,0.906291
6374.729299,0.937543
6375.588713,0.859414
6376.338748,0.750034
6377.120033,0.781286
6377.932570,0.812537
6385.136025,0.937543
6385.948562,0.812537
6407.496424,0.875040
6408.402715,0.906291
6409.277755,0.875040
6410.168421,0.890666
6411.027835,0.859414
6418.121910,0.812537
6418.840693,0.718783
6419.621979,0.781286
6420.481393,0.859414
6421.372059,0.890666
6422.278350,0.906291
6423.153390,0.875040
6423.997179,0.843789
6470.264922,0.812537
6470.999331,0.734409
6471.749365,0.750034
6472.640031,0.890666
6473.593199,0.953169
6474.327608,0.734409
6475.124519,0.796911
6475.827677,0.703157
6500.735067,0.671906
6501.391347,0.656280
6502.063252,0.671906
6507.547879,0.781286
6508.344790,0.796911
6509.157327,0.812537
6509.985490,0.828163
6510.798027,0.812537
6511.579313,0.781286
6512.360599,0.781286
6519.735936,0.828163
6520.548474,0.812537
6521.345385,0.796911
6522.111045,0.765660
6522.751699,0.640654
6563.831705,0.734409
6564.472359,0.640654
6565.206768,0.734409
6565.894299,0.687531
6566.581831,0.687531
6567.378742,0.796911
6571.238294,0.765660
6571.988328,0.750034
6578.973023,0.718783
6579.816812,0.843789
6580.551220,0.734409
6581.301255,0.750034
6582.098166,0.796911
6582.832575,0.734409
6583.645112,0.812537
6584.535778,0.890666
6585.254560,0.718783
6586.129601,0.875040
6586.989015,0.859414
6587.817178,0.828163
6588.614089,0.796911
6589.411001,0.796911
6590.176661,0.765660
6590.942321,0.765660
6591.707981,0.765660
6592.364261,0.656280
6593.098670,0.734409
6593.833078,0.734409
6602.411596,0.656280
6603.114753,0.703157
6603.927290,0.812537
6604.786705,0.859414
6605.552365,0.765660
6612.912076,0.812537
6613.865245,0.953169
6632.162958,0.937543
6633.069249,0.906291
6633.959915,0.890666
6634.819329,0.859414
6635.647492,0.828163
6636.444404,0.796911
6637.335069,0.890666
6655.460899,0.703157
6656.226559,0.765660
6676.164972,0.796911
6677.008760,0.843789
6711.463463,0.546900
6712.104117,0.640654
6712.697894,0.593777
6719.120063,0.640654
6719.776343,0.656280
6720.401372,0.625029
6721.010775,0.609403
6721.604552,0.593777
6722.245206,0.640654
6722.885860,0.640654
6723.510889,0.625029
6724.135918,0.625029
6724.807823,0.671906
6725.417226,0.609403
6726.026629,0.609403
6726.667284,0.640654
6727.307938,0.640654
6727.886089,0.578151
6728.542369,0.656280
6734.136375,0.593777
6734.714527,0.578151
6735.355181,0.640654
6735.917707,0.562526
6765.747197,0.687531
6766.434729,0.687531
6767.059757,0.625029
6767.762915,0.703157
6768.481698,0.718783
6769.153603,0.671906
6866.283049,0.593777
7745.573298,0.625029
7746.198327,0.625029
7860.156668,0.640654
7873.032257,0.546900
7873.626034,0.593777
7874.219812,0.593777
7874.797963,0.578151
7875.438617,0.640654
7876.094898,0.656280
7876.813680,0.718783
7877.407458,0.593777
7878.110615,0.703157
7878.641889,0.531274
7879.313795,0.671906
7879.923198,0.609403
7880.532601,0.609403
7881.173255,0.640654
7881.860786,0.687531
7882.642072,0.781286
7883.376481,0.734409
7884.189018,0.812537
7885.001555,0.812537
7885.751590,0.750034
7886.532875,0.781286
7887.267284,0.734409
7887.986067,0.718783
7888.689224,0.703157
7889.517387,0.828163
7890.142416,0.625029
7890.876824,0.734409
7891.533104,0.656280
7892.283139,0.750034
7893.111301,0.828163
7893.876961,0.765660
7894.689499,0.812537
7955.395402,0.765660
7956.192314,0.796911
7956.989225,0.796911
7957.864265,0.875040
7958.786183,0.921917
7959.614346,0.828163
7960.426883,0.812537
7961.270671,0.843789
7962.036331,0.765660
7962.770740,0.734409
7963.536400,0.765660
7964.395814,0.859414
8000.241205,0.906291
8001.131871,0.890666
8001.960034,0.828163
8025.148595,0.687531
8025.961133,0.812537
8026.804921,0.843789
8027.601833,0.796911
8028.492498,0.890666
8029.414416,0.921917
8030.226953,0.812537
8031.086367,0.859414
8031.945781,0.859414
8032.742693,0.796911
8033.570856,0.828163
8034.414644,0.843789
8035.289685,0.875040
8036.086596,0.796911
8037.039765,0.953169
8038.055436,1.015671
8038.961728,0.906291
8039.836768,0.875040
8040.727433,0.890666
8041.649351,0.921917
8042.477514,0.828163
8043.321302,0.843789
8044.133839,0.812537
8044.899499,0.765660
8045.758914,0.859414
8046.727708,0.968794
8047.587122,0.859414
8048.555917,0.968794
8049.540337,0.984420
8050.431003,0.890666
8051.431048,1.000046
8052.259211,0.828163
8053.056123,0.796911
8053.946789,0.890666
8054.837454,0.890666
8055.665617,0.828163
8056.571909,0.906291
8057.493826,0.921917
8058.321989,0.828163
8059.197029,0.875040
8060.072069,0.875040
8061.197120,1.125051
8065.197304,0.953169
8066.009841,0.812537
8066.853629,0.843789
8067.744295,0.890666
8068.603709,0.859414
8069.431872,0.828163
8070.291287,0.859414
8071.150701,0.859414
8071.963238,0.812537
8072.838278,0.875040
8073.728944,0.890666
8074.557107,0.828163
8075.369644,0.812537
8076.197807,0.828163
8077.072847,0.875040
8077.885384,0.812537
8078.776050,0.890666
8079.697967,0.921917
8130.997190,0.718783
8131.715973,0.718783
8132.434756,0.718783
8133.106662,0.671906
8133.825445,0.718783
8134.637982,0.812537
8135.419268,0.781286
8136.216179,0.796911
8137.106845,0.890666
8138.028762,0.921917
8138.935054,0.906291
8139.856971,0.921917
8140.778888,0.921917
8141.575800,0.796911
8142.403963,0.828163
8143.263377,0.859414
8144.060288,0.796911
8144.841574,0.781286
8145.669737,0.828163
8146.513526,0.843789
8147.279186,0.765660
8148.107349,0.828163
8148.982389,0.875040
8149.748049,0.765660
8150.529335,0.781286
8151.341872,0.812537
8152.029403,0.687531
8161.311078,0.640654
8161.904855,0.593777
8162.529884,0.625029
8163.139287,0.609403
8163.717438,0.578151
8164.295590,0.578151
8164.889367,0.593777
8165.483144,0.593777
8173.202247,0.703157
8173.874153,0.671906
8174.608562,0.734409
8175.467976,0.859414
8176.343016,0.875040
8177.124302,0.781286
8177.889962,0.765660
8178.733751,0.843789
8179.577539,0.843789
8180.358825,0.781286
8181.202614,0.843789
8182.077654,0.875040
8182.921442,0.843789
8183.718354,0.796911
8184.562142,0.843789
8185.421557,0.859414
8186.171591,0.750034
8186.890374,0.718783
8187.687285,0.796911
8188.452945,0.765660
8189.187354,0.734409
8189.796757,0.609403
8190.609294,0.812537
8191.468709,0.859414
8192.281246,0.812537
8193.140660,0.859414
8193.968823,0.828163
8194.796986,0.828163
8195.625149,0.828163
8196.468937,0.843789
8197.375229,0.906291
8198.172140,0.796911
8199.015929,0.843789
8199.890969,0.875040
8200.703506,0.812537
8207.172552,0.859414
8208.110095,0.937543
8208.922632,0.812537
8209.750795,0.828163
8210.578958,0.828163
8211.438373,0.859414
8212.266536,0.828163
8213.094698,0.828163
8213.938487,0.843789
8214.688521,0.750034
8215.501059,0.812537
8216.297970,0.796911
8217.157384,0.859414
8218.016799,0.859414
8219.001219,0.984420
8219.938762,0.937543
8220.860679,0.921917
8221.798222,0.937543
8222.673262,0.875040
8223.532676,0.859414
8224.376465,0.843789
8225.189002,0.812537
8225.985914,0.796911
8226.798451,0.812537
8227.673491,0.875040
8228.470402,0.796911
8229.298565,0.828163
8230.157979,0.859414
8230.970517,0.812537
8231.783054,0.812537
8240.424074,0.656280
8241.142857,0.718783
8241.814763,0.671906
8242.517920,0.703157
8243.236703,0.718783
8244.002363,0.765660
8244.705520,0.703157
8245.455555,0.750034
8246.236840,0.781286
8246.986875,0.750034
8247.705658,0.718783
8248.486943,0.781286
8249.299481,0.812537
8250.049515,0.750034
8250.815175,0.765660
8251.612087,0.796911
8252.440249,0.828163
8253.190284,0.750034
8260.221856,0.828163
8260.987516,0.765660
8286.644940,0.765660
8287.348097,0.703157
8288.020003,0.671906
8288.723160,0.703157
8289.457569,0.734409
8290.191978,0.734409
8290.895135,0.703157
8291.598292,0.703157
8292.285823,0.687531
8293.035858,0.750034
8293.785892,0.750034
8294.551552,0.765660
8295.364089,0.812537
8296.192252,0.828163
8296.957912,0.765660
8297.692321,0.734409
8298.348601,0.656280
8299.020507,0.671906
8299.661161,0.640654
8300.411195,0.750034
8301.239358,0.828163
8302.051895,0.812537
8303.020690,0.968794
8304.020736,1.000046
8304.864524,0.843789
8305.739564,0.875040
8306.598979,0.859414
8307.411516,0.812537
8308.239679,0.828163
8309.099093,0.859414
8309.958507,0.859414
8310.786670,0.828163
8311.661710,0.875040
8312.552376,0.890666
8313.349288,0.796911
8314.208702,0.859414
8315.099368,0.890666
8315.911905,0.812537
8316.786945,0.875040
8317.724488,0.937543
8318.583902,0.859414
8319.412065,0.828163
8320.240228,0.828163
8321.052765,0.812537
8321.818425,0.765660
8322.584085,0.765660
8323.334120,0.750034
8324.099780,0.765660
8324.865440,0.765660
8325.662351,0.796911
8326.521765,0.859414
8327.412431,0.890666
8328.240594,0.828163
8329.146886,0.906291
8330.068803,0.921917
8330.881340,0.812537
8331.740754,0.859414
8332.662672,0.921917
8333.475209,0.812537
8334.350249,0.875040
8335.256540,0.906291
8336.131580,0.875040
8337.006620,0.875040
8337.912912,0.906291
8338.881706,0.968794
8339.725495,0.843789
8340.647412,0.921917
8341.584955,0.937543
8342.444369,0.859414
8343.350661,0.906291
8344.335081,0.984420
8345.288249,0.953169
8346.178915,0.890666
8347.163335,0.984420
8348.085253,0.921917
8348.944667,0.859414
8349.850958,0.906291
8350.804127,0.953169
8351.647916,0.843789
8352.585459,0.937543
8353.569879,0.984420
8354.429293,0.859414
8355.351210,0.921917
8356.288753,0.937543
8357.179419,0.890666
8358.101336,0.921917
8359.085756,0.984420
8360.132679,1.046923
8361.085848,0.953169
8362.070268,0.984420
8363.039062,0.968794
8363.929728,0.890666
8364.882896,0.953169
8365.882942,1.000046
8366.757982,0.875040
8367.648648,0.890666
8368.554940,0.906291
8369.398728,0.843789
8370.258142,0.859414
8371.148808,0.890666
8372.023848,0.875040
8401.103304,0.984420
8413.775759,0.953169
8424.088732,0.953169
8424.932520,0.843789
8425.854437,0.921917
8426.776355,0.921917
8427.604517,0.828163
8428.510809,0.906291
8429.463978,0.953169
8430.432772,0.968794
8440.011335,0.937543
8440.980130,0.968794
8441.870795,0.890666
8442.808338,0.937543
8443.777133,0.968794
8444.714676,0.937543
8445.589716,0.875040
8446.480381,0.890666
8447.371047,0.890666
8448.199210,0.828163
8449.089876,0.890666
8449.996167,0.906291
8450.855582,0.859414
8451.808750,0.953169
8452.777545,0.968794
8453.652585,0.875040
8454.511999,0.859414
8455.355788,0.843789
8456.183951,0.828163
8456.996488,0.812537
8457.902779,0.906291
8458.902825,1.000046
8459.762239,0.859414
8460.731034,0.968794
8461.637325,0.906291
8462.449862,0.812537
8463.293651,0.843789
8464.137440,0.843789
8464.934351,0.796911
8465.840643,0.906291
8466.809437,0.968794
8467.700103,0.890666
8468.668897,0.968794
8469.637691,0.968794
8470.497106,0.859414
8471.387772,0.890666
8472.325315,0.937543
8473.200355,0.875040
8474.075395,0.875040
8474.997312,0.921917
8475.809849,0.812537
8476.591135,0.781286
8477.419298,0.828163
8478.200583,0.781286
8478.950618,0.750034
8479.731904,0.781286
8480.560066,0.828163
8481.388229,0.828163
8482.200767,0.812537
8483.060181,0.859414
8483.935221,0.875040
8484.747758,0.812537
8485.622798,0.875040
8486.513464,0.890666
8487.310375,0.796911
8488.138538,0.828163
8489.013578,0.875040
8489.826116,0.812537
8490.685530,0.859414
8491.576196,0.890666
8492.373107,0.796911
8493.216896,0.843789
8494.060684,0.843789
8494.904473,0.843789
8495.701385,0.796911
8496.545173,0.843789
8497.357710,0.812537
8498.170248,0.812537
8498.998410,0.828163
8499.810948,0.812537
8500.607859,0.796911
8501.467273,0.859414
8502.357939,0.890666
8503.186102,0.828163
8504.076768,0.890666
8505.029937,0.953169
8505.842474,0.812537
8506.733140,0.890666
8507.623805,0.890666
8508.451968,0.828163
8509.358260,0.906291
8510.327054,0.968794
8511.233346,0.906291
8512.124011,0.890666
8513.045928,0.921917
8513.967846,0.921917
8514.796009,0.828163
8515.686674,0.890666
8516.655469,0.968794
8517.530509,0.875040
8518.421175,0.890666
8519.343092,0.921917
8520.155629,0.812537
8521.030669,0.875040
8521.952586,0.921917
8522.796375,0.843789
8523.687041,0.890666
8524.608958,0.921917
8525.452746,0.843789
8526.343412,0.890666
8527.249704,0.906291
8528.077867,0.828163
8528.952907,0.875040
8529.859198,0.906291
8530.781115,0.921917
8531.656155,0.875040
8532.609324,0.953169
8533.578118,0.968794
8534.421907,0.843789
8535.343824,0.921917
8536.281367,0.937543
8537.140781,0.859414
8538.047073,0.906291
8538.984616,0.937543
8539.937784,0.953169
8540.844076,0.906291
8541.797245,0.953169
8542.812916,1.015671
8543.703582,0.890666
8544.625499,0.921917
8545.578668,0.953169
8546.516211,0.937543
8547.422502,0.906291
8548.375671,0.953169
8549.313214,0.937543
8550.203879,0.890666
8551.172674,0.968794
8552.172719,1.000046
8553.063385,0.890666
8554.016554,0.953169
8554.985348,0.968794
8555.813511,0.828163
8556.704177,0.890666
8557.704223,1.000046
8558.610514,0.906291
8559.563683,0.953169
8560.563729,1.000046
8561.516897,0.953169
8562.376312,0.859414
8563.266977,0.890666
8564.126392,0.859414
8564.954555,0.828163
8565.845220,0.890666
8566.782763,0.937543
8567.626552,0.843789
8568.610972,0.984420
8569.454761,0.843789
8570.345426,0.890666
8580.127124,0.859414
8580.939661,0.812537
8581.877204,0.937543
8582.861624,0.984420
8583.736664,0.875040
8584.627330,0.890666
8585.533622,0.906291
8586.314907,0.781286
8587.143070,0.828163
8588.033736,0.890666
8588.893150,0.859414
8589.690062,0.796911
8590.549476,0.859414
8591.487019,0.937543
8592.283931,0.796911
8593.096468,0.812537
8593.987134,0.890666
8594.830922,0.843789
8595.659085,0.828163
8596.674757,1.015671
8597.690428,1.015671
8598.596720,0.906291
8599.565514,0.968794
8600.534308,0.968794
8611.175420,1.015671
8612.097337,0.921917
8613.034880,0.937543
8613.988049,0.953169
8614.847463,0.859414
8615.769381,0.921917
8616.738175,0.968794
8617.660092,0.921917
8618.566384,0.906291
8619.519552,0.953169
8620.472721,0.953169
8621.332135,0.859414
8622.300930,0.968794
8623.254098,0.953169
8624.051010,0.796911
8624.910424,0.859414
8625.801090,0.890666
8626.644878,0.843789
8627.519918,0.875040
8628.457461,0.937543
8629.363753,0.906291
8630.316921,0.953169
8631.285716,0.968794
8641.879951,0.953169
8642.708114,0.828163
8643.630031,0.921917
8644.567574,0.937543
8645.505117,0.937543
8646.302028,0.796911
8647.161443,0.859414
8648.036483,0.875040
8649.005277,0.968794
8649.942820,0.937543
8651.020994,1.078174
8652.099169,1.078174
8653.067963,0.968794
8663.474689,0.937543
8664.427858,0.953169
8665.365401,0.937543
8666.256067,0.890666
8667.099855,0.843789
8667.974895,0.875040
8668.928064,0.953169
8669.756227,0.828163
8670.678144,0.921917
8671.662564,0.984420
8672.553230,0.890666
8673.490773,0.937543
8674.459567,0.968794
8675.334607,0.875040
8676.225273,0.890666
8677.162816,0.937543
8678.084733,0.921917
8678.959773,0.875040
8679.897316,0.937543
8680.834859,0.937543
8681.663022,0.828163
8682.553688,0.890666
8683.506856,0.953169
8684.397522,0.890666
8685.303813,0.906291
8686.272608,0.968794
8687.210151,0.937543
8688.100816,0.890666
8689.069611,0.968794
8690.069657,1.000046
8690.929071,0.859414
8691.882240,0.953169
8692.851034,0.968794
8701.179540,0.953169
8702.070206,0.890666
8702.960872,0.890666
8703.929666,0.968794
8704.898460,0.968794
8705.773500,0.875040
8706.679792,0.906291
8707.601709,0.921917
8708.414246,0.812537
8709.304912,0.890666
8710.258081,0.953169
8711.117495,0.859414
8712.008161,0.890666
8712.945704,0.937543
8713.867621,0.921917
8714.695784,0.828163
8715.664578,0.968794
8716.664624,1.000046
8717.477161,0.812537
8718.320950,0.843789
8719.180364,0.859414
8719.961650,0.781286
8730.368376,0.890666
8731.227791,0.859414
8746.853506,0.562526
8747.431657,0.578151
8748.041060,0.609403
8748.775469,0.734409
8749.603632,0.828163
8750.275537,0.671906
8751.072449,0.796911
8751.806858,0.734409
8752.556892,0.750034
8753.244423,0.687531
8753.931955,0.687531
8754.635112,0.703157
8755.275766,0.640654
8755.963298,0.687531
8756.572701,0.609403
8757.213355,0.640654
8757.885261,0.671906
8758.635295,0.750034
8759.322827,0.687531
8759.994732,0.671906
8760.729141,0.734409
8761.526052,0.796911
8762.260461,0.734409
8762.947993,0.687531
8763.651150,0.703157
8764.323056,0.671906
8764.994961,0.671906
8765.744996,0.750034
8770.479587,0.875040
8771.354627,0.875040
8772.245293,0.890666
8773.135959,0.890666
8773.979748,0.843789
8774.901665,0.921917
8775.807956,0.906291
8776.589242,0.781286
8777.370528,0.781286
8778.151814,0.781286
8778.886222,0.734409
8779.730011,0.843789
8784.636485,0.984420
8785.433397,0.796911
8786.292811,0.859414
8787.214728,0.921917
8788.027266,0.812537
8788.933557,0.906291
8789.855474,0.921917
8790.714889,0.859414
8791.621180,0.906291
8792.636852,1.015671
8793.652523,1.015671
8794.574440,0.921917
8795.590112,1.015671
8796.637035,1.046923
8797.652706,1.015671
8798.605875,0.953169
8799.668423,1.062549
8809.246987,0.937543
8810.200155,0.953169
8811.012693,0.812537
8811.997113,0.984420
8812.981533,0.984420
8813.825321,0.843789
8814.684736,0.859414
8815.591027,0.906291
8816.481693,0.890666
8817.294230,0.812537
8818.184896,0.890666
8819.122439,0.937543
8819.903725,0.781286
8820.731888,0.828163
8821.560050,0.828163
8822.497593,0.937543
8823.388259,0.890666
8824.325802,0.937543
8825.294596,0.968794
8826.216514,0.921917
8827.044677,0.828163
8827.919717,0.875040
8829.044768,1.125051
8833.044951,0.828163
8833.904366,0.859414
8834.795031,0.890666
8835.701323,0.906291
8836.513860,0.812537
8837.404526,0.890666
8838.310817,0.906291
8839.170232,0.859414
8839.982769,0.812537
8840.810932,0.828163
8841.717223,0.906291
8842.561012,0.843789
8843.451678,0.890666
8844.389220,0.937543
8845.295512,0.906291
8846.217429,0.921917
8847.186224,0.968794
8848.123766,0.937543
8848.920678,0.796911
8849.686338,0.765660
8850.436372,0.750034
8851.139529,0.703157
8851.842687,0.703157
8852.608347,0.765660
8857.374190,0.921917
8858.249230,0.875040
8859.218024,0.968794
8860.046187,0.828163
8860.921227,0.875040
8861.796267,0.875040
8862.780687,0.984420
8863.624476,0.843789
8864.562019,0.937543
8872.046736,0.875040
8872.921777,0.875040
8873.859319,0.937543
8874.843740,0.984420
8875.796908,0.953169
8876.812580,1.015671
8877.828251,1.015671
8878.687665,0.859414
8879.562706,0.875040
8880.500248,0.937543
8881.375288,0.875040
8882.250329,0.875040
8883.219123,0.968794
8884.203543,0.984420
8885.156712,0.953169
8886.156757,1.000046
8887.172429,1.015671
8888.063095,0.890666
8889.063140,1.000046
8890.063186,1.000046
8890.906975,0.843789
8891.797641,0.890666
8892.719558,0.921917
8893.563346,0.843789
8894.454012,0.890666
8895.485309,1.031297
8896.438478,0.953169
8897.422898,0.984420
8898.454195,1.031297
8899.407364,0.953169
8900.344907,0.937543
8901.282450,0.937543
8902.204367,0.921917
8903.032530,0.828163
8903.907570,0.875040
8904.907616,1.000046
8905.798281,0.890666
8906.751450,0.953169
8907.720244,0.968794
8908.610910,0.890666
8909.548453,0.937543
8910.517247,0.968794
8911.376662,0.859414
8912.251702,0.875040
8913.204870,0.953169
8914.189291,0.984420
8915.048705,0.859414
8915.986248,0.937543
8916.970668,0.984420
8917.861334,0.890666
8918.798877,0.937543
8919.783297,0.984420
8920.705214,0.921917
8921.595880,0.890666
8922.533422,0.937543
8923.408463,0.875040
8924.252251,0.843789
8925.189794,0.937543
8926.205466,1.015671
8927.127383,0.921917
8928.064926,0.937543
8929.064971,1.000046
8929.986889,0.921917
8930.893180,0.906291
8931.815097,0.921917
8932.737015,0.921917
8933.565177,0.828163
8934.471469,0.906291
8940.784258,0.984420
8941.768678,0.984420
8942.628092,0.859414
8943.565635,0.937543
8957.253762,0.906291
8958.160053,0.906291
8959.035093,0.875040
8959.910133,0.875040
8960.722671,0.812537
8961.550833,0.828163
8962.378996,0.828163
8963.254036,0.875040
8964.066574,0.812537
8964.879111,0.812537
8965.754151,0.875040
8966.629191,0.875040
8967.488605,0.859414
8968.441774,0.953169
8969.394943,0.953169
8970.254357,0.859414
8971.160648,0.906291
8972.082566,0.921917
8972.910728,0.828163
8973.770143,0.859414
8974.660809,0.890666
8975.567100,0.906291
8976.410889,0.843789
8977.348432,0.937543
8978.332852,0.984420
8979.207892,0.875040
8980.114183,0.906291
8981.051726,0.937543
8981.895515,0.843789
8982.754929,0.859414
8983.661221,0.906291
8984.614389,0.953169
8985.458178,0.843789
8986.411346,0.953169
8987.380141,0.968794
8988.223929,0.843789
8989.083344,0.859414
8989.958384,0.875040
8990.817798,0.859414
8991.661587,0.843789
8992.536627,0.875040
8993.442918,0.906291
8994.255455,0.812537
8995.099244,0.843789
8996.005536,0.906291
8996.833699,0.828163
8997.693113,0.859414
8998.599404,0.906291
8999.458819,0.859414
9000.286982,0.828163
9001.162022,0.875040
9002.005810,0.843789
9002.787096,0.781286
9003.662136,0.875040
9004.552802,0.890666
9005.380965,0.828163
9006.334133,0.953169
9007.287302,0.953169
9008.131091,0.843789
9009.021756,0.890666
9009.928048,0.906291
9010.865591,0.937543
9011.678128,0.812537
9012.568794,0.890666
9013.490711,0.921917
9014.350125,0.859414
9015.209540,0.859414
9016.131457,0.921917
9024.928735,0.984420
9025.975657,1.046923
9026.975703,1.000046
9027.913246,0.937543
9028.897666,0.984420
9029.850835,0.953169
9030.647746,0.796911
9031.491535,0.843789
9032.429078,0.937543
9033.397872,0.968794
9034.210409,0.812537
9035.085449,0.875040
9035.976115,0.890666
9036.835530,0.859414
9037.741821,0.906291
9038.710615,0.968794
9039.601281,0.890666
9040.491947,0.890666
9058.680279,0.765660
9076.712355,0.593777
9123.323864,1.015671
9124.323909,1.000046
9125.245826,0.921917
9126.261498,1.015671
9127.308421,1.046923
9128.261590,0.953169
9129.277261,1.015671
9130.339810,1.062549
9131.246101,0.906291
9132.277398,1.031297
9133.371198,1.093800
9134.293116,0.921917
9135.355664,1.062549
9136.449464,1.093800
9137.402633,0.953169
9138.480807,1.078174
9139.637110,1.156303
9140.574653,0.937543
9141.559073,0.984420
9142.621622,1.062549
9143.512288,0.890666
9144.496708,0.984420
9145.528005,1.031297
9146.418671,0.890666
9147.418716,1.000046
9148.496891,1.078174
9149.418808,0.921917
9150.434479,1.015671
9151.465777,1.031297
9152.325191,0.859414
9153.293985,0.968794
9154.309657,1.015671
9155.231574,0.921917
9156.231620,1.000046
9157.262917,1.031297
9158.169209,0.906291
9159.200506,1.031297
9160.294306,1.093800
9161.216223,0.921917
9162.247520,1.031297
9163.294443,1.046923
9164.185109,0.890666
9165.153903,0.968794
9166.169575,1.015671
9167.075866,0.906291
9168.060286,0.984420
9169.091583,1.031297
9170.013501,0.921917
9171.013546,1.000046
9172.044844,1.031297
9173.044889,1.000046
9174.138690,1.093800
9175.169987,1.031297
9176.107530,0.937543
9177.091950,0.984420
9177.998241,0.906291
9178.857656,0.859414
9179.826450,0.968794
9180.810870,0.984420
9181.701536,0.890666
9182.748459,1.046923
9183.748504,1.000046
9184.670422,0.921917
9185.639216,0.968794
9186.576759,0.937543
9187.467425,0.890666
9188.404968,0.937543
9189.342510,0.937543
9190.248802,0.906291
9191.248848,1.000046
9192.264519,1.015671
9193.217688,0.953169
9194.217734,1.000046
9195.202154,0.984420
9196.124071,0.921917
9197.170994,1.046923
9198.124162,0.953169
9199.108582,0.984420
9200.108628,1.000046
9201.046171,0.937543
9201.983714,0.937543
9202.999386,1.015671
9203.921303,0.921917
9204.858846,0.937543
9205.827640,0.968794
9206.812060,0.984420
9207.749603,0.937543
9208.780900,1.031297
9209.780946,1.000046
9210.687238,0.906291
9211.671658,0.984420
