1530780718.000000
4.000000
0.000000
0.835227
1.181370
1.619548
2.097469
2.585738
3.075304
3.569293
4.088509
4.583423
5.080380
5.429812
5.445896
5.488170
5.508666
5.506104
5.502261
5.524038
5.531724
5.529162
5.520195
5.518914
5.506104
5.493294
5.485608
5.485608
5.474078
5.471516
5.477921
5.475359
5.474078
5.495856
5.530443
5.572717
5.581684
5.565031
5.559907
5.553502
5.535567
5.536849
5.536849
5.535567
5.536849
5.529162
5.531724
5.531724
5.534286
5.536849
5.536849
5.531724
5.534286
5.539411
5.529162
5.509947
5.504823
5.500980
5.498418
5.494575
5.489450
5.477921
5.480484
5.477921
5.475359
5.470235
5.468954
5.479202
5.466392
5.474078
5.467673
5.475359
5.474078
5.480484
5.485608
5.497137
5.502261
5.512509
5.525319
5.545815
5.558626
5.563750
5.562469
5.561188
5.566312
5.561188
5.545815
5.539411
5.525319
5.516352
5.512509
5.503542
5.494575
5.490732
5.480484
5.475359
5.479202
5.471516
5.459987
5.458706
5.448458
5.448458
5.444615
5.438210
5.444615
5.444615
5.435647
5.429243
5.425399
5.417713
5.412589
5.418994
5.406184
5.404903
5.395936
5.392093
5.389531
5.389531
5.388250
5.385688
5.383126
5.386969
5.386969
5.408746
5.421556
5.440772
5.499699
5.550940
5.568874
5.625239
5.700819
5.763589
5.731564
5.668794
5.630363
5.616272
5.604743
5.588089
5.597056
5.609867
5.603462
5.602180
5.593214
5.599618
5.593214
5.593214
5.606024
5.608586
5.598338
5.602180
5.588089
5.576560
5.572717
5.563750
5.561188
5.559907
5.572717
5.611148
5.650859
5.695695
5.723878
5.802020
5.818674
5.791772
5.843013
5.832765
5.810987
5.794334
5.793053
5.773838
5.746936
5.729002
5.712348
5.689290
5.677761
5.667513
5.653421
5.643173
5.649579
5.645735
5.647017
5.655983
5.654703
5.644454
5.634206
5.638049
5.630363
5.613710
5.595776
5.595776
5.577841
5.552221
5.550940
5.530443
5.517633
5.498418
5.489450
5.476640
5.463830
5.456144
5.448458
5.448458
5.436929
5.422837
5.422837
5.411308
5.410027
5.404903
5.401060
5.402341
5.398498
5.394655
5.392093
5.380564
5.384407
5.378002
5.376720
5.372878
5.370316
5.371596
5.374158
5.371596
5.365191
5.358786
5.363910
5.362629
5.357505
5.357505
5.357505
5.354943
5.352381
5.349819
5.349819
5.356224
5.365191
5.372878
5.389531
5.399779
5.408746
5.407465
5.404903
5.402341
5.401060
5.403622
5.402341
5.392093
5.385688
5.386969
5.378002
5.374158
5.372878
5.367754
5.367754
5.365191
5.372878
5.363910
5.370316
5.360067
5.366472
5.362629
5.352381
5.344695
5.334447
5.339571
5.378002
5.424119
5.459987
5.466392
5.447177
5.454863
5.451020
5.445896
5.461268
5.472797
5.490732
5.573998
5.609867
5.622677
5.636768
5.667513
5.711068
5.746936
5.727721
5.727721
5.713630
5.718754
5.793053
5.894254
5.978801
6.115540
6.238518
6.326909
6.375587
6.388398
6.397365
6.383274
6.347405
6.362777
6.349967
6.380712
6.315380
6.232113
6.224427
6.241080
6.216741
6.162938
6.133474
6.165500
6.128350
6.138598
6.136036
6.160376
6.091201
6.048927
5.998967
5.956693
5.884956
5.849087
5.805532
5.777350
5.755573
5.731233
5.720985
5.710737
5.719704
5.704332
5.697927
5.712018
5.758135
5.818343
5.860617
5.877270
5.901609
5.863179
5.334116
5.203783
4.950140
5.403622
5.352381
5.357505
5.319075
5.369034
5.526600
5.658545
5.768713
5.885287
5.935246
5.990000
6.007934
5.998967
5.951569
5.887518
5.829872
5.348207
5.625239
4.801541
5.313239
5.454152
5.456144
5.448458
5.407465
5.431805
5.576560
5.694414
5.805863
5.880163
5.914750
5.916031
5.909296
5.863179
5.817062
5.760697
5.838839
5.850368
5.924668
5.933635
5.934916
5.923387
5.916982
5.915700
5.914420
5.925949
5.920825
5.942602
5.973347
6.020744
6.070704
6.110416
6.124507
6.118102
6.115540
6.098887
6.077109
6.063018
6.057894
6.059175
6.046365
6.041241
6.038679
6.036117
6.030993
6.030993
6.025868
6.029712
6.047646
6.070704
6.115540
6.191121
6.259015
6.310256
6.353810
6.424266
6.510863
6.595410
6.659461
6.714545
6.767067
6.858020
7.038644
7.435329
7.749875
7.902317
7.956120
8.045170
7.996490
7.887604
7.726195
7.576315
7.439246
7.350855
7.283583
7.224656
7.178539
7.136265
7.101678
7.065809
7.041470
7.029941
7.037627
7.035065
7.037627
7.042751
7.042751
7.067090
7.070933
7.056842
7.017130
6.995353
6.982543
6.964608
6.959484
6.942831
6.923615
6.896019
6.863993
6.831968
6.790975
6.762793
6.747420
6.771760
6.769197
6.802504
6.762793
6.665435
6.666716
6.716676
6.758949
6.833249
6.862712
6.880647
6.816596
6.767917
6.843497
6.907548
6.889614
6.855026
6.837092
6.911391
6.852464
6.857588
6.860150
6.853745
6.869117
6.870399
6.888333
6.866555
6.871679
6.838373
6.694898
6.835811
6.897300
6.928044
6.903705
6.808909
6.904986
6.898581
6.840935
6.860150
6.875523
7.004906
7.109950
7.048460
7.111231
7.243176
7.326442
7.348220
7.334128
7.414833
7.537225
7.478298
7.459083
7.451397
7.461645
7.444992
7.407842
7.384784
7.373254
7.341229
7.307922
7.295112
7.291269
7.269492
7.264368
7.240028
7.216970
7.229780
7.216970
7.200316
7.202878
7.199036
7.183663
7.160605
7.151638
7.143951
7.123455
7.096554
7.061966
7.026097
7.015849
7.038908
7.033783
7.023535
7.012006
7.019692
7.082462
7.122174
7.191350
7.243871
7.330981
7.473174
7.584623
7.607682
7.616649
7.601276
7.556441
7.512886
7.471893
7.430901
7.397594
7.400156
7.420652
7.432181
7.470612
7.402718
7.373254
7.341229
7.389908
7.443711
7.448835
7.493670
7.409123
7.332262
7.416809
7.295112
7.179820
7.169572
7.173415
7.154200
7.140109
7.113207
7.120893
7.190068
7.240028
7.291269
7.366849
7.427057
7.543631
7.658923
7.763967
7.780620
7.711444
7.722974
7.670452
7.624335
7.592309
7.552598
7.556441
7.556441
7.570532
7.525696
7.496233
7.489828
7.507762
7.541069
7.548755
7.537225
7.514167
7.514167
7.492390
7.460364
7.446273
7.439867
7.428339
7.425776
7.411685
7.406561
7.384784
7.378378
7.355320
7.348915
7.337386
7.350196
7.356601
7.383502
7.411685
7.448835
7.471893
7.478298
7.465488
7.451397
7.466769
7.515448
7.594872
7.666609
7.705040
7.714006
7.687105
7.647393
7.602558
7.553879
7.502638
7.436025
7.430901
7.462926
7.471893
7.405280
7.348915
7.336105
7.304080
7.305360
7.202878
7.156762
7.156762
7.161886
7.169572
7.149076
7.126017
7.093992
7.069652
7.047875
7.038908
7.047875
7.036345
7.027379
7.017130
7.003039
6.990229
6.992791
6.988948
6.968451
6.962046
6.965889
6.947955
6.944112
6.933864
6.914649
6.939574
6.967756
7.004906
7.031807
7.053585
7.062552
7.061271
7.026683
7.015154
6.992095
6.981847
6.983129
6.992095
7.002344
7.001063
7.001063
6.994658
6.976723
6.974161
6.960070
6.940855
6.925482
6.915234
6.899862
6.892176
6.883209
6.872961
6.862712
6.863993
6.860150
6.866555
6.861431
6.870399
6.876803
6.885771
6.902424
6.921639
6.962632
7.033088
7.140694
7.241895
7.289293
7.320037
7.316194
7.295698
7.261110
7.209869
7.180406
7.159910
7.135570
7.099701
7.084329
7.056147
7.034369
7.021559
7.008749
6.989533
6.978004
6.967756
6.956227
6.947260
6.945979
6.943417
6.945979
6.940855
6.947260
6.949822
6.935730
6.939574
6.916515
6.907548
6.890895
6.888333
6.876803
6.865274
6.860150
6.856307
6.844778
6.834530
6.821720
6.819158
6.821720
6.803785
6.797380
6.794818
6.784570
6.785851
6.778165
6.780727
6.770479
6.766635
6.755106
6.751263
6.753825
6.743577
6.737172
6.734610
6.732048
6.725643
6.732048
6.726924
6.726924
6.717957
6.714114
6.705146
6.703866
6.698741
6.694898
6.692336
6.691055
6.694898
6.692336
6.696179
6.698741
6.692336
6.692336
6.698741
6.691055
6.688493
6.674402
6.674402
6.673121
6.665435
6.660311
6.653906
6.657749
6.652625
6.647501
6.659030
6.660311
6.650063
6.673121
6.707708
6.706428
6.688493
6.662873
6.669278
6.675683
6.671840
6.669278
6.678245
6.685931
6.684650
6.660311
6.664154
6.656468
6.661592
6.646220
6.644938
6.638534
6.635972
6.630847
6.623161
6.618037
6.607789
6.596260
6.593698
6.582169
6.582169
6.578325
6.568077
6.565515
6.562953
6.568077
6.560391
6.561672
6.570639
6.596260
6.628285
6.653906
6.665435
6.664154
6.659030
6.657749
6.639814
6.624442
6.620599
6.606508
6.614194
6.610351
6.611632
6.594979
6.591136
6.588573
6.584731
6.597541
6.607789
6.628285
6.621880
6.628285
6.633410
6.625723
6.616756
6.605227
6.603946
6.596260
6.596260
6.602665
6.618037
6.615475
6.620599
6.614194
6.607789
6.597541
6.598822
6.589855
6.593698
6.571920
6.582169
6.575763
6.561672
6.561672
6.553986
6.548862
6.555267
6.546300
6.539895
6.546300
6.532208
6.527084
6.525804
6.516836
6.511712
6.507869
6.520679
6.512993
6.527084
6.546300
6.577044
6.596260
6.610351
6.612913
6.615475
6.606508
6.600103
6.580887
6.587293
6.568077
6.562953
6.547581
6.545019
6.543738
6.541176
6.541176
6.527084
6.528366
6.520679
6.512993
6.519398
6.521960
6.519398
6.528366
6.536052
6.537333
6.534770
6.528366
6.527084
6.529646
6.536052
6.561672
6.598822
6.637252
6.675683
6.689774
6.703866
6.697460
6.680807
6.659030
6.641096
6.618037
6.598822
6.586011
6.580887
6.580887
6.661592
6.746139
6.748701
6.721800
6.746139
6.823000
6.839654
6.947260
7.182968
7.172720
7.320037
7.288012
7.255986
7.234209
7.221399
7.212431
7.200902
7.189373
7.189373
7.162472
7.140694
7.131727
7.138132
7.157348
7.162472
7.166315
7.166315
7.158628
7.174001
7.149662
7.152224
7.147099
7.143256
7.147099
7.136851
7.127884
7.117636
7.111231
7.108669
7.099701
7.103545
7.081767
7.074081
7.063833
7.056147
7.048460
7.049742
7.035650
7.020278
7.017716
7.007468
7.004906
7.003625
7.004906
6.984409
6.986971
6.981847
6.970318
6.963913
6.951103
6.951103
6.947260
6.933168
6.924201
6.921639
6.913953
6.916515
6.916515
6.908829
6.899862
6.906267
6.904986
6.901143
6.893457
6.906267
6.887052
6.888333
6.881927
6.893457
6.883209
6.876803
6.881927
6.884490
6.888333
6.883209
6.887052
6.897300
6.911391
6.928044
6.935730
6.938293
6.935730
6.933168
6.928044
6.938293
6.935730
6.930606
6.917796
6.915234
6.912672
6.916515
6.908829
6.915234
6.903705
6.904986
6.901143
6.897300
6.901143
6.901143
6.903705
6.896019
6.894738
6.887052
6.889614
6.874241
6.874241
6.865274
6.857588
6.848621
6.844778
6.839654
6.825562
6.828125
6.824282
6.816596
6.815314
6.812752
6.802504
6.801223
6.796099
6.792256
6.782008
6.779446
6.775603
6.771760
6.775603
6.769197
6.765355
6.760231
6.766635
6.769197
6.776884
6.776884
6.783289
6.783289
6.790975
6.779446
6.776884
6.771760
6.769197
6.769197
6.766635
6.765355
6.760231
6.760231
6.755106
6.748701
6.748701
6.744858
6.743577
6.742296
6.744858
6.751263
6.760231
6.794818
6.819158
6.824282
6.817876
6.820438
6.803785
6.807628
6.796099
6.784570
6.774322
6.794818
6.780727
6.782008
6.767917
6.765355
6.762793
6.765355
6.761511
6.748701
6.748701
6.743577
6.737172
6.729486
6.723081
6.738453
6.733329
6.719238
6.716676
6.712832
6.701303
6.698741
6.693617
6.691055
6.691055
6.688493
6.689774
6.682088
6.682088
6.685931
6.683369
6.676964
6.671840
6.676964
6.664154
6.657749
6.650063
6.651344
6.642376
6.642376
6.642376
6.639814
6.633410
6.643658
6.638534
6.633410
6.628285
6.625723
6.621880
6.620599
6.614194
6.615475
6.607789
6.603946
6.601384
6.594979
6.587293
6.582169
6.580887
6.580887
6.575763
6.569358
6.564234
6.566796
6.556548
6.552705
6.550143
6.546300
6.541176
6.543738
6.546300
6.537333
6.545019
6.538614
6.541176
6.529646
6.527084
6.530928
6.528366
6.525804
6.527084
6.538614
6.528366
6.521960
6.515555
6.520679
6.510431
6.515555
6.509150
6.506588
6.505307
6.519398
6.512993
6.521960
6.528366
6.539895
6.555267
6.553986
6.553986
6.551424
6.546300
6.548862
6.550143
6.551424
6.546300
6.539895
6.538614
6.533490
6.515555
6.518117
6.515555
6.528366
6.525804
6.538614
6.555267
6.568077
6.592417
6.609070
6.624442
6.637252
6.641096
6.646220
6.648782
6.651344
6.641096
6.643658
6.633410
6.628285
6.619318
6.601384
6.598822
6.596260
6.594979
6.591136
6.591136
6.586011
6.587293
6.591136
6.582169
6.586011
6.569358
6.565515
6.562953
6.556548
6.551424
6.545019
6.530928
6.541176
6.532208
6.552705
6.609070
6.716676
6.846059
6.967756
7.034369
7.099701
7.097139
7.020278
6.992095
6.999782
7.026683
7.120198
7.094577
7.108669
7.058709
7.033088
7.036932
7.021559
6.998501
6.975442
6.933168
6.906267
6.879365
6.867836
6.846059
6.838373
6.821720
6.814034
6.833249
6.861431
6.892176
6.907548
6.911391
6.906267
6.880647
6.856307
6.838373
6.826844
6.829406
6.834530
6.852464
6.852464
6.855026
6.855026
6.849902
6.831968
6.812752
6.771760
6.747420
6.724362
6.716676
6.693617
6.687212
6.670559
6.664154
6.659030
6.665435
6.647501
6.650063
6.642376
6.638534
6.634690
6.635972
6.653906
6.666716
6.676964
6.698741
6.705146
6.706428
6.692336
6.685931
6.682088
6.682088
6.680807
6.667997
6.660311
6.656468
6.651344
6.644938
6.641096
6.646220
6.639814
6.639814
6.638534
6.634690
6.625723
6.624442
6.601384
6.594979
6.588573
6.579607
6.589855
6.596260
6.575763
6.561672
6.561672
6.564234
6.557829
6.552705
6.552705
6.541176
6.553986
6.534770
6.530928
6.536052
6.528366
6.536052
6.545019
6.555267
6.562953
6.570639
6.577044
6.577044
6.574482
6.557829
6.553986
6.550143
6.545019
6.534770
6.525804
6.524522
6.520679
6.510431
6.507869
6.502745
6.504026
6.486092
6.505307
6.505307
6.520679
6.528366
6.527084
6.537333
6.543738
6.560391
6.555267
6.550143
6.539895
6.530928
6.521960
6.529646
6.520679
6.514274
6.502745
6.496340
6.489935
6.483530
6.480968
6.482249
6.479687
6.478405
6.487373
6.484811
6.492497
6.492497
6.495059
6.486092
6.474563
6.472001
6.461752
6.460471
6.461752
6.455347
6.457909
6.464314
6.479687
6.489935
6.502745
6.521960
6.524522
6.530928
6.539895
6.520679
6.511712
6.511712
6.492497
6.484811
6.479687
6.473281
6.455347
6.454066
6.451504
6.442537
6.439975
6.446380
6.445099
6.442537
6.437413
6.436132
6.427165
6.446812
6.449374
6.460903
6.481399
6.469870
6.471151
6.466027
6.466027
6.457060
6.455779
6.458341
6.467308
6.486523
6.514706
6.503177
6.537764
6.528797
6.628717
6.790126
6.793969
6.802936
6.847772
6.787564
6.781158
6.760662
6.769629
6.741447
6.735042
6.737604
6.699173
6.737604
6.728637
6.737604
6.701735
6.685082
6.747852
6.750414
6.750414
6.791407
6.728637
6.679958
6.651775
6.647932
6.651775
6.681239
6.732480
6.769629
6.823432
6.856739
6.845210
6.815746
6.795250
6.773472
6.746571
6.729918
6.713264
6.713264
6.715827
6.729918
6.710702
6.696611
6.688925
6.664586
6.650494
6.640246
6.615907
6.615907
6.597972
6.587724
6.591567
6.586443
6.583881
6.574914
6.568509
6.563385
6.555698
6.546731
6.544169
6.532640
6.526235
6.523673
6.519830
6.517268
6.510863
6.507020
6.504457
6.495491
6.490366
6.485242
6.481399
6.492929
6.487804
6.486523
6.504457
6.512144
6.519830
6.521111
6.532640
6.539045
6.537764
6.542888
6.549294
6.546731
6.546731
6.544169
6.541607
6.535202
6.531359
6.523673
6.510863
6.512144
6.517268
6.503177
6.498053
6.498053
6.499333
6.500615
6.505739
6.513425
6.540326
6.541607
6.562104
6.562104
6.555698
6.562104
6.549294
6.548012
6.532640
6.535202
6.522392
6.509582
6.510863
6.499333
6.496771
6.495491
6.491647
6.486523
6.489085
6.477556
6.474994
6.462184
6.476275
6.474994
6.455779
6.454498
6.446812
6.441688
6.440406
6.430158
6.435282
6.421191
6.419910
6.416067
6.421191
6.417348
6.407100
6.400695
6.404538
6.390447
6.399414
6.396852
6.394289
6.396852
6.395571
6.386603
6.389165
6.389165
6.394289
6.382761
6.378917
6.381479
6.381479
6.375074
6.376355
6.372512
6.372512
6.367388
6.373793
6.377636
6.378917
6.376355
6.378917
6.373793
6.382761
6.375074
6.360983
6.357140
6.354578
6.350735
6.352016
6.350735
6.343049
6.350735
6.334082
6.327676
6.332800
6.321271
6.318709
6.318709
6.318709
6.313585
6.327676
6.339206
6.373793
6.387885
6.405819
6.426315
6.436563
6.439126
6.441688
6.449374
6.450655
6.441688
6.437844
6.434001
6.431439
6.435282
6.419910
6.413505
6.405819
6.399414
6.405819
6.401976
6.390447
6.393009
6.381479
6.371231
6.367388
6.355859
6.357140
6.346892
6.345611
6.337924
6.336644
6.337924
6.326396
6.326396
6.325114
6.328958
6.323833
6.322552
6.318709
6.317428
6.312304
6.302056
6.313585
6.299494
6.296932
6.291808
6.287965
6.296932
6.291808
6.285403
6.286684
6.281560
6.284122
6.271312
6.262344
6.261064
6.281560
6.289246
6.291808
6.304618
6.299494
6.308461
6.325114
6.339206
6.348173
6.360983
6.366107
6.364826
6.354578
6.352016
6.352016
6.336644
6.330238
6.319990
6.314866
6.312304
6.309742
6.307180
6.305899
6.300775
6.300775
6.289246
6.300775
6.291808
6.290527
6.284122
6.284122
6.284122
6.290527
6.285403
6.285403
6.278998
6.273874
6.272593
6.266188
6.264906
6.258502
6.252096
6.272593
6.259782
6.250815
6.245691
6.240567
6.246972
6.243129
6.239286
6.246972
6.235443
6.236724
6.223914
6.232881
6.234162
6.227757
6.229038
6.229038
6.221352
6.218790
6.222633
6.217509
6.212385
6.214947
6.220071
6.213665
6.214947
6.211103
6.204699
6.205979
6.211103
6.204699
6.200855
6.205979
6.218790
6.235443
6.244410
6.250815
6.248253
6.253377
6.245691
6.241848
6.235443
6.232881
6.238005
6.230319
6.238005
6.229038
6.234162
6.235443
6.238005
6.235443
6.229038
6.225195
6.216228
6.220071
6.225195
6.217509
6.211103
6.208541
6.204699
6.212385
6.218790
6.205979
6.208541
6.207261
6.209823
6.199574
6.199574
6.198293
6.193169
6.190607
6.200855
6.194450
6.182921
6.186764
6.184202
6.185483
6.179078
6.181640
6.168830
6.186764
6.181640
6.171392
6.163706
6.164987
6.159863
6.163706
6.156020
6.154738
6.156020
6.164987
6.153458
6.150896
6.161144
6.154738
6.163706
6.152176
6.161144
6.158582
6.154738
6.176516
6.195731
6.221352
6.246972
6.281560
6.291808
6.295651
6.303337
6.289246
6.278998
6.267468
6.257220
6.254658
6.240567
6.239286
6.229038
6.231600
6.226476
6.222633
6.211103
6.204699
6.204699
6.202137
6.189326
6.202137
6.186764
6.194450
6.197012
6.205979
6.213665
6.204699
6.209823
6.205979
6.203417
6.208541
6.220071
6.218790
6.209823
6.199574
6.208541
6.211103
6.234162
6.367388
6.474994
6.504457
6.527516
6.558260
6.583881
6.619750
6.626155
6.638965
6.651775
6.677396
6.656899
6.633841
6.609501
6.585162
6.590286
6.628717
6.685082
6.773472
6.836243
6.865706
6.849053
6.822151
6.788845
6.747852
6.709421
6.677396
6.651775
6.635122
6.619750
6.591567
6.569790
6.560822
6.546731
6.533921
6.528797
6.512144
6.500615
6.500615
6.491647
6.485242
6.478837
6.482680
6.463465
6.457060
6.454498
6.442968
6.432720
6.434001
6.416067
6.414786
6.512144
6.622312
6.742728
6.660742
6.686363
6.623593
6.571071
6.599253
6.696611
6.774754
6.874673
6.984841
7.111231
7.170158
7.185530
7.177844
7.126603
7.070238
7.049742
6.916515
6.885771
6.979285
6.989533
6.958789
6.943417
6.937012
6.940855
6.958789
6.919077
6.843497
6.860150
6.879365
6.910110
6.917796
6.915234
6.945979
7.036932
7.143256
7.230366
7.271358
7.262392
7.234209
7.181687
7.134289
7.098421
7.044618
6.993377
6.958789
6.890895
6.849902
6.824282
6.852464
6.942136
6.983129
7.015154
6.976723
6.897300
6.862712
6.838373
6.782008
6.770479
6.780727
6.797380
6.802504
6.803785
6.801223
6.778165
6.774322
6.770479
6.767917
6.758949
6.753825
6.756387
6.748701
6.753825
6.749982
6.747420
6.752544
6.746139
6.821720
6.906267
6.972880
6.907548
6.888333
6.862712
6.835811
6.814034
6.799942
6.788413
6.787132
6.779446
6.785851
6.855026
6.829406
6.803785
6.794818
6.779446
6.766635
6.751263
6.746139
6.764073
6.797380
6.776884
6.773041
6.761511
6.770479
6.766635
6.752544
6.749982
6.801223
6.797380
6.780727
6.796099
6.825562
6.876803
6.915234
6.942136
6.930606
6.935730
6.938293
7.012592
7.002344
6.969037
6.958789
6.897300
6.917796
6.904986
6.938293
6.949822
6.952384
6.945979
6.934450
6.920358
6.907548
6.903705
6.899862
6.942136
7.048460
7.001063
6.958789
6.942136
6.922920
6.952384
6.960070
6.969037
6.972880
6.961351
6.992095
6.999782
7.261110
7.161191
7.072800
7.085610
7.020278
7.053585
7.100983
7.141975
7.170158
7.193216
7.172720
7.136851
7.135570
7.115074
7.086891
7.045898
7.007468
6.988253
7.012592
7.018997
7.047180
7.081767
7.102263
7.102263
7.106107
7.124041
7.153504
7.175282
7.218837
7.261110
7.275202
7.263672
7.230366
7.165034
7.117636
7.085610
7.062552
7.051023
7.017716
7.033088
7.045898
7.048460
7.025402
6.989533
6.960070
6.966475
6.980567
7.001063
6.998501
7.013873
7.016435
7.016435
6.999782
6.999782
6.998501
7.017716
7.021559
7.033088
7.048460
7.062552
7.080486
7.108669
7.138132
7.180406
7.188092
7.186811
7.180406
7.154786
7.135570
7.099701
7.068957
7.058709
7.035650
7.027964
7.033088
7.036932
7.054866
7.061271
7.080486
7.088172
7.084329
7.077924
7.070238
7.071519
7.066395
7.061271
7.057428
7.053585
7.047180
7.040774
7.026683
7.015154
7.006187
6.986971
6.985691
6.986971
6.983129
6.975442
6.972880
6.972880
6.975442
6.983129
6.983129
6.984409
6.975442
6.969037
6.975442
6.962632
6.966475
6.972880
7.006187
7.056147
7.126603
7.194497
7.239333
7.258548
7.266234
7.232928
7.213713
7.198340
7.188092
7.150942
7.144537
7.139413
7.138132
7.131727
7.135570
7.143256
7.159910
7.191935
7.213713
7.229085
7.245738
7.225242
7.211151
7.191935
7.170158
7.148380
7.152224
7.124041
7.107388
7.098421
7.090734
7.089453
7.079205
7.090734
7.086891
7.090734
7.097139
7.094577
7.103545
7.102263
7.100983
7.089453
7.086891
7.072800
7.067676
7.054866
7.051023
7.056147
7.051023
7.051023
7.048460
7.051023
7.051023
7.042056
7.035650
7.034369
7.025402
7.013873
7.008749
7.001063
6.994658
6.998501
6.992095
6.981847
6.984409
6.972880
6.969037
6.970318
6.958789
6.949822
6.945979
6.942136
6.939574
6.933168
6.938293
6.939574
6.931888
6.938293
6.933168
6.930606
6.925482
6.929326
6.916515
6.913953
6.911391
6.906267
6.910110
6.908829
6.899862
6.901143
6.894738
6.890895
6.893457
6.894738
6.894738
6.888333
6.888333
6.888333
6.898581
6.887052
6.884490
6.889614
6.889614
6.880647
6.887052
6.901143
6.894738
6.869117
6.875523
6.838373
6.799942
6.814034
6.749982
6.730767
6.743577
6.796099
6.860150
6.887052
6.884490
6.898581
6.897300
6.884490
6.879365
6.872961
6.870399
6.862712
6.861431
6.855026
6.853745
6.846059
6.842216
6.839654
6.830687
6.825562
6.825562
6.823000
6.828125
6.829406
6.840935
6.857588
6.875523
6.888333
6.892176
6.901143
6.894738
6.888333
6.885771
6.885771
6.915234
6.937012
6.972880
7.024121
7.088172
7.124041
7.147099
7.149662
7.141975
7.113793
7.089453
7.068957
7.049742
7.027964
7.010030
7.003625
6.995939
6.975442
6.965194
6.949822
6.945979
6.937012
6.935730
6.939574
6.920358
6.925482
6.920358
6.913953
6.913953
6.903705
6.907548
6.899862
6.894738
6.885771
6.894738
6.878085
6.874241
6.860150
6.876803
6.861431
6.856307
6.849902
6.838373
6.840935
6.826844
6.825562
6.819158
6.817876
6.815314
6.802504
6.799942
6.802504
6.794818
6.787132
6.790975
6.787132
6.787132
6.778165
6.771760
6.784570
6.766635
6.765355
6.762793
6.761511
6.756387
6.752544
6.752544
6.748701
6.741015
6.741015
6.739734
6.737172
6.746139
6.741015
6.755106
6.778165
6.810190
6.834530
6.847340
6.860150
6.867836
6.857588
6.851183
6.839654
6.828125
6.816596
6.806347
6.796099
6.790975
6.793537
6.784570
6.778165
6.778165
6.776884
6.765355
6.764073
6.756387
6.752544
6.839654
7.002344
6.940855
6.933168
6.908829
7.010030
7.147099
7.133008
7.056147
7.053585
7.061271
7.075362
7.079205
7.093297
7.102263
7.109950
7.118917
7.120198
7.125322
7.104825
7.102263
7.077924
7.070238
7.048460
7.030526
7.024121
7.011311
6.999782
6.993377
6.984409
6.975442
6.967756
6.960070
6.952384
6.949822
6.942136
6.933168
6.928044
6.928044
6.920358
6.901143
6.887052
6.862712
6.843497
6.815314
6.801223
6.758949
6.743577
6.746139
6.764073
6.793537
6.785851
6.820438
6.901143
6.966475
6.978004
6.997220
6.976723
6.981847
6.992095
7.042056
7.095859
7.109950
7.124041
7.163753
7.147099
7.145818
7.136851
7.125322
7.083048
7.049742
7.022840
7.016435
7.010030
7.011311
7.020278
6.978004
6.985691
6.981847
6.985691
6.988253
6.986971
6.985691
6.972880
6.967756
6.961351
6.951103
6.951103
6.935730
6.928044
6.920358
6.911391
6.915234
6.921639
6.979285
7.092015
7.121479
7.180406
7.209869
7.049742
7.049742
7.034369
7.022840
7.048460
7.076643
7.044618
7.011311
7.007468
7.017716
7.015154
7.011311
7.004906
6.994658
6.992095
6.985691
6.975442
6.971599
6.963913
6.960070
6.956227
6.957508
6.960070
6.954946
6.961351
6.962632
6.943417
6.940855
6.925482
6.930606
6.925482
6.921639
6.907548
6.911391
6.907548
6.902424
6.906267
6.899862
6.898581
6.898581
6.892176
6.906267
6.925482
6.938293
6.938293
6.925482
6.931888
6.935730
6.926764
6.930606
6.920358
6.902424
6.906267
6.893457
6.885771
6.896019
6.904986
6.903705
6.897300
6.894738
6.892176
6.884490
6.881927
6.880647
6.887052
6.884490
6.892176
6.876803
6.863993
6.866555
6.856307
6.847340
6.843497
6.843497
6.855026
6.896019
6.960070
7.089453
7.235490
7.361030
7.417395
7.507762
7.515448
7.474455
7.418090
7.378378
7.354039
7.336105
7.320733
7.309204
7.297674
7.307922
7.291269
7.278459
7.252839
7.236185
7.219532
7.215689
7.195192
7.184944
7.168291
7.169572
7.174696
7.186225
7.204160
7.215689
7.211846
7.208003
7.190068
7.172134
7.163167
7.152919
7.140109
7.134984
7.123455
7.122174
7.115769
7.105521
7.092710
7.088868
7.078619
7.083744
7.069652
7.065809
7.052999
7.045313
7.064528
7.050437
7.041470
7.040189
7.033783
7.038908
7.026097
7.020973
7.018411
7.009444
7.004320
7.015849
7.012006
7.006882
7.006882
7.005601
7.010725
7.006882
7.000477
7.006882
6.992791
6.995353
6.997915
6.995353
6.992791
6.992791
7.009444
7.014568
7.026097
7.029941
7.022254
7.018411
7.017130
7.010725
7.003039
7.022254
7.003039
6.992791
6.979980
6.976138
6.977418
6.969732
6.956922
6.959484
6.964608
6.960765
6.962046
6.955641
6.949236
6.944112
6.945393
6.937707
6.937707
6.932583
6.933864
6.950517
6.968451
7.006882
7.045313
7.082462
7.106802
7.128579
7.118331
7.118331
7.110645
7.108083
7.097835
7.090148
7.078619
7.067090
7.060685
7.049156
7.040189
7.038908
7.026097
7.023535
7.019692
7.015849
7.008163
7.008163
7.005601
7.003039
7.004320
6.991510
6.987667
6.994072
6.986386
6.987667
6.982543
6.972294
6.969732
6.964608
6.963327
6.956922
6.953079
6.956922
6.950517
6.950517
6.955641
6.953079
6.956922
6.953079
6.950517
6.955641
6.965889
6.947955
6.946674
6.944112
6.942831
6.946674
6.946674
6.953079
6.959484
6.962046
6.969732
6.965889
6.954360
6.956922
6.949236
6.953079
6.937707
6.942831
6.946674
6.944112
6.950517
6.947955
6.944112
6.942831
6.942831
6.940269
6.942831
6.924897
6.933168
6.925482
6.915234
6.912672
6.908829
6.908829
6.897300
6.897300
6.899862
6.892176
6.894738
6.892176
6.885771
6.883209
6.876803
6.876803
6.875523
6.872961
6.867836
6.866555
6.867836
6.869117
6.863993
6.861431
6.857588
6.853745
6.840935
6.847340
6.849902
6.862712
6.852464
6.856307
6.858869
6.860150
6.872961
6.858869
6.855026
6.856307
6.856307
6.863993
6.871679
6.885771
6.901143
6.908829
6.934450
6.945979
6.947260
6.952384
6.942136
6.931888
6.922920
6.926764
6.910110
6.910110
6.924201
6.928044
6.929326
6.938293
6.928044
6.926764
6.925482
6.913953
6.912672
6.925482
6.921639
6.910110
6.911391
6.902424
6.911391
6.898581
6.898581
6.892176
6.885771
6.879365
6.887052
6.883209
6.878085
6.879365
6.874241
6.875523
6.879365
6.878085
6.879365
6.885771
6.879365
6.881927
6.883209
6.883209
6.897300
6.897300
6.894738
6.890895
6.890895
6.884490
6.897300
6.933168
6.995939
7.053585
7.099701
7.148380
7.175282
7.184249
7.176563
7.203465
7.172720
7.159910
7.140694
7.120198
7.104825
7.115074
7.133008
7.129165
7.116355
7.109950
7.095859
7.088172
7.085610
7.072800
7.075362
7.068957
7.066395
7.058709
7.048460
7.047180
7.039494
7.034369
7.025402
7.018997
7.016435
7.010030
7.004906
6.995939
6.997220
6.992095
6.988253
6.988253
6.975442
7.024121
7.026683
6.985691
6.989533
6.975442
6.998501
7.004906
6.997220
7.001063
6.997220
6.995939
6.992095
6.989533
7.001063
7.008749
7.021559
7.040774
7.047180
7.040774
7.071519
7.131727
7.108669
7.098421
7.098421
7.100983
7.111231
7.153504
7.199621
7.270078
7.369997
7.443016
7.520572
7.551317
7.583342
7.553879
7.520572
7.505200
7.468050
7.444992
7.441149
7.414247
7.395032
7.389908
7.380940
7.416809
7.506481
7.637145
7.756280
7.857481
7.902317
7.929218
7.927315
7.909381
7.895290
7.819709
7.758220
7.728757
7.709541
7.658300
7.668549
7.691607
7.692888
7.683921
7.663424
7.619870
7.577596
7.557100
7.686483
7.732600
7.644209
7.603217
7.562224
7.522512
7.476396
7.476396
7.466147
7.459742
7.450775
7.413625
7.479579
7.428339
7.379660
7.377098
7.406561
7.411685
7.437305
7.464207
7.460364
7.452678
7.447554
7.439867
7.424495
7.427057
7.396313
7.405280
7.416809
7.441149
7.474455
7.515448
7.509043
7.503919
7.493670
7.474455
7.450116
7.429619
7.428339
7.410404
7.398875
7.400156
7.400156
7.387346
7.428339
7.459083
7.496233
7.575656
7.585904
7.585904
7.585904
7.606400
7.606400
7.607682
7.602558
7.576937
7.555160
7.539787
7.533382
7.523134
7.520572
7.507762
7.543631
7.570532
7.569251
7.566689
7.530820
7.470612
7.432181
7.446273
7.567970
7.694791
7.794711
7.829298
7.890788
7.972773
8.192487
8.443567
8.634202
8.768709
8.860943
8.880158
8.844290
8.691848
8.570151
8.461264
8.402337
8.354939
8.306260
8.229399
8.175596
8.192249
8.215308
8.201217
8.206341
8.197373
8.180720
8.161505
8.148695
8.156381
8.162786
8.156381
8.120512
8.094892
8.126917
8.110264
8.070552
8.041089
8.001377
7.988567
8.021873
8.089767
8.093611
8.135884
8.178158
8.222994
8.240929
8.233242
8.206341
8.167910
8.147413
8.130760
8.102578
8.076958
8.030841
8.011625
8.041089
8.117950
8.255019
8.418990
8.521472
8.594490
8.582961
8.579118
8.485603
8.328038
8.115388
8.083363
8.176877
8.216589
8.235805
8.298574
8.349815
8.339567
8.444611
8.457421
8.556060
8.614986
8.868629
9.027476
9.255965
9.496798
9.537730
9.207226
9.221317
9.225161
9.280245
9.457026
9.681205
9.756784
9.596657
9.501862
9.416033
9.351982
9.281526
9.209788
9.072719
9.056066
9.112431
9.193135
9.425000
9.682486
9.740131
9.688890
9.692734
9.664552
9.528763
9.465993
9.485209
9.622277
9.987369
10.365191
10.525319
10.659266
10.409466
10.363349
10.295455
10.162229
9.971356
9.854783
9.706745
9.535089
9.392895
9.291774
9.164952
9.118835
9.052222
9.015073
8.980485
8.954865
8.976643
9.074000
9.385288
9.847737
10.048858
10.438210
10.529882
10.413309
10.310827
10.131484
9.889371
9.719556
9.610669
9.510749
9.535089
9.615793
9.724680
9.736209
9.775921
9.710588
9.617074
9.499220
9.363431
9.410909
9.449340
9.517234
9.501862
9.439092
9.396817
9.346858
9.302022
9.391693
9.582566
9.823398
10.034767
10.222998
10.297297
10.246056
10.167913
10.035968
9.914271
9.765673
9.651662
9.547898
9.396738
9.364792
9.326362
9.369916
9.563351
9.659428
9.713230
9.782405
9.911789
10.114111
10.115392
10.262710
10.413870
10.742532
10.915470
10.985927
10.965688
10.843990
10.704359
10.564728
10.516048
10.741508
10.925976
11.152717
11.166808
11.220612
11.335903
11.508842
11.764831
11.804543
11.766111
11.568834
11.339531
11.060268
10.846337
10.598034
10.462246
10.362326
10.235248
10.144295
10.045656
9.966232
9.897058
9.841253
9.793855
9.722117
9.683687
9.647819
9.633727
9.605545
9.585049
9.442855
9.462070
9.478724
9.417234
9.414752
9.400661
9.418595
9.418595
9.449340
9.481365
9.568475
9.581285
9.536449
9.573599
9.499299
9.482646
9.465993
9.440372
9.453182
9.437810
9.500581
9.492894
9.514671
9.490333
9.496737
9.501862
9.569756
9.765752
9.988650
10.255023
10.415151
10.526039
10.437649
10.395375
10.289050
10.135327
10.337729
10.578561
10.814269
10.837328
10.882164
10.871916
10.806583
10.773276
10.663109
10.614429
10.555503
10.478642
10.420996
10.260868
10.184007
10.055904
10.009788
9.917554
9.884808
9.856626
9.832286
9.798979
9.759268
9.749020
9.732366
9.727242
9.676001
9.708027
9.687531
9.736209
9.761829
9.787450
9.841253
9.850220
9.838691
9.790012
9.775921
9.733647
9.724680
9.723399
9.749020
9.820757
9.856626
9.782326
9.469756
9.532526
9.518435
9.667034
9.729804
9.864311
10.007786
9.952702
10.059027
9.978322
10.016753
10.014191
10.003942
10.105144
10.094895
10.106424
10.125640
10.270395
10.397217
10.508666
10.649017
10.665670
10.583685
10.495295
10.374879
10.239090
10.149419
10.029002
10.017473
10.055904
10.061028
10.066153
10.053342
9.989291
9.958547
9.936769
9.914271
9.907866
9.886088
9.868155
9.919395
9.847658
9.816914
9.836129
9.831005
9.823318
9.909147
9.936049
10.210187
10.187129
10.221717
10.176881
10.143574
10.097457
10.055183
10.030844
10.033406
10.153822
10.367753
10.527881
10.668233
10.707945
10.615711
10.477361
10.299298
10.283926
10.224999
10.062309
10.018754
10.157104
10.347977
10.513229
10.704102
10.622116
10.570875
10.400499
10.271116
10.178883
10.068714
9.984167
9.979043
10.044374
10.095615
10.123798
10.044374
10.034126
9.994415
9.944455
9.909147
9.837410
9.824599
9.779764
9.760549
9.734928
9.711869
9.696497
9.683687
9.658067
9.654223
9.650380
9.633727
9.647819
9.714432
9.877122
10.044935
10.255023
10.476640
10.669514
10.761747
10.696415
10.665670
10.522196
10.440210
10.328762
10.277521
10.160948
10.177601
10.230124
10.408185
10.542692
10.614429
10.646456
10.587528
10.502981
10.391532
10.295455
10.162229
10.089211
10.046937
10.016192
9.995696
9.979043
9.957265
9.922678
9.916833
9.912991
9.937329
9.960388
10.006505
10.060308
10.107705
10.101300
10.071836
10.075680
10.134607
10.338289
10.465111
10.706663
10.750218
10.788649
10.663109
10.563189
10.435086
10.309546
10.195536
10.109707
10.105864
10.068714
10.066153
10.004663
10.032845
10.037970
10.114831
10.093054
10.032845
10.059747
10.030284
9.986729
9.949579
9.945016
9.907866
9.947577
9.902742
9.927081
10.001381
10.130764
10.293454
10.325480
10.433085
10.461988
10.491451
10.429962
10.405623
10.310827
10.249338
10.265992
10.239090
10.274959
10.324919
10.453021
10.506824
10.581123
10.619554
10.609305
10.574718
10.473517
10.427401
10.365911
10.363349
10.299298
10.187849
10.255744
10.319795
10.374879
10.520915
10.597776
10.663109
10.702821
10.692573
10.716911
10.663109
10.633645
10.564470
10.501699
10.432525
10.371036
10.319795
10.309546
10.267273
10.236528
10.278802
10.376160
10.647737
10.932123
11.082003
11.325655
11.314126
11.239826
11.014366
10.525016
10.391789
10.433805
10.540131
10.593933
10.572156
10.405623
10.345415
10.280083
10.324919
10.337729
10.326200
10.292893
10.259586
10.235248
10.218594
10.198097
10.185287
10.180163
10.167353
10.166072
10.199379
10.200660
10.203221
10.192973
10.200660
10.248057
10.286489
10.337729
10.363349
10.380003
10.353101
10.341572
10.313390
10.290331
10.289050
10.296737
10.304422
10.272397
10.305703
10.216032
10.255744
10.077682
10.076401
10.160948
10.269835
10.376160
10.468393
10.527320
10.559346
10.555503
10.552940
10.531163
10.483766
10.429962
10.444054
10.426120
10.413309
10.429962
10.394094
10.390251
10.381284
10.363349
10.354383
10.332604
10.314671
10.306985
10.306985
10.324919
10.342853
10.371036
10.395375
10.399218
10.387689
10.373597
10.368473
10.350539
10.341572
10.339010
10.336448
10.359507
10.362068
10.367192
10.354383
10.353101
10.364631
10.378721
10.408185
10.441492
10.473517
10.510667
10.533726
10.537568
10.513229
10.501699
10.482485
10.461988
10.437649
10.426120
10.401780
10.394094
10.399218
10.417152
10.418433
10.419714
10.432525
10.428681
10.451740
10.459426
10.470955
10.463269
10.460707
10.597776
10.729722
10.756623
10.651580
10.656704
10.620835
10.479922
10.414590
10.395375
10.451740
10.591372
10.592652
10.715631
10.754062
10.604181
10.590091
10.683605
10.729722
10.693853
10.633645
10.588809
10.618273
10.643893
10.666952
10.641332
10.613149
10.613149
10.551660
10.494014
10.467113
10.442773
10.415872
10.391532
10.403061
10.400499
10.376160
10.346696
10.340291
10.317232
10.342853
10.392813
10.413309
10.444054
10.437649
10.420996
10.435086
10.417152
10.436368
10.482485
10.588809
10.684886
10.706663
10.750218
10.779682
10.857824
10.569594
10.116112
10.030284
10.108426
10.155824
10.186568
10.241652
10.291613
10.346696
10.420996
10.458145
10.401780
10.350539
10.291613
10.205784
10.244214
10.246777
10.273678
10.337729
10.346696
10.326200
10.308266
10.304422
10.344134
10.318514
10.342853
10.331324
10.350539
10.419714
10.487609
10.573437
10.581123
10.611868
10.592652
10.587528
10.541411
10.560627
10.578561
10.531163
10.527320
10.527320
10.481203
10.477361
10.482485
10.492733
10.538850
10.513229
10.504262
10.502981
10.538850
10.505543
10.461988
10.447897
10.413309
10.392813
10.382565
10.391532
10.438930
10.445334
10.455583
10.455583
10.468393
10.453021
10.477361
10.440210
10.429962
10.453021
10.499138
10.572156
10.642612
10.707945
10.693853
10.754062
10.706663
10.578561
10.527320
10.502981
10.496575
10.515791
10.485046
10.487609
10.486327
10.479922
10.496575
10.449178
10.437649
10.422276
10.391532
10.390251
10.308266
10.333886
10.441492
10.473517
10.514510
10.527320
10.536287
10.532444
10.532444
10.509386
10.513229
10.514510
10.510667
10.481203
10.477361
10.464550
10.476079
10.486327
10.500419
10.549098
10.537568
10.527320
10.532444
10.522196
10.500419
10.505543
10.465831
10.476079
10.465831
10.473517
10.486327
10.492733
10.515791
10.550379
10.602901
10.633645
10.678481
10.698977
10.746375
10.793773
10.797616
10.787368
10.746375
10.713069
10.687449
10.654141
10.611868
10.593933
10.592652
10.588809
10.546535
10.526039
10.535007
10.536287
10.555503
10.611868
10.634926
10.591372
10.578561
10.563189
10.605463
10.629802
10.674638
10.698977
10.728441
10.774558
10.796335
10.845014
10.873197
10.879601
10.877040
10.837328
10.816832
10.779682
10.763028
10.732284
10.715631
10.737408
10.747656
10.830923
10.992332
11.270571
11.498593
11.681564
11.737929
11.698217
11.576520
11.449698
11.333126
11.221677
11.139691
11.058987
10.947538
10.952877
10.982341
11.104038
11.130939
11.182180
11.196272
11.123254
11.132220
11.068170
11.161684
11.091228
11.042549
10.983622
10.941348
10.915728
10.881140
10.861925
10.854239
10.824775
10.794030
10.801717
10.764567
10.806841
10.846553
10.867049
10.906760
10.963125
10.986184
10.993870
10.933662
10.941348
10.909323
10.855519
10.827337
10.888826
10.925976
10.938787
10.996432
10.983622
11.082261
11.092509
11.202677
11.248794
11.319250
11.388425
11.374334
11.364086
11.337184
11.307721
11.325655
11.316688
11.326936
11.297473
11.316688
11.337184
11.324374
11.248794
11.243670
11.197553
11.170651
11.177056
11.259042
11.408921
11.490907
11.659786
11.693093
11.699498
11.638009
11.563710
11.498378
11.421516
11.358747
11.325439
11.335688
11.360027
11.361308
11.360027
11.285728
11.263950
11.257545
11.237049
11.217834
11.194776
11.149940
11.144815
11.124319
11.147378
11.125600
11.101261
11.128162
11.152502
11.194776
11.194776
11.203743
11.202461
11.174279
11.179403
11.192213
11.270356
11.306224
11.292133
11.293414
11.247297
11.230644
11.158907
11.129443
11.099979
11.085889
11.050020
11.069235
11.158907
11.308786
11.438169
11.588049
11.625199
11.629042
11.835287
11.987728
12.187908
12.344193
12.350598
12.264770
12.195595
12.086708
11.943233
11.808726
11.706244
11.573018
11.502562
11.423138
11.381804
11.279323
11.254984
11.234488
11.203743
11.228082
11.213991
11.243454
11.258826
11.287009
11.307506
11.288290
11.308786
11.298538
11.352341
11.331844
11.329283
11.310067
11.290852
11.284447
11.258826
11.235768
11.266513
11.211429
11.219115
11.169155
11.129443
11.219115
11.381804
11.786608
12.063309
12.353161
12.474857
12.469135
12.311569
12.276981
12.187310
12.116854
12.091233
12.106606
12.013091
11.951602
11.820255
11.701120
11.607605
11.530744
11.432105
11.321596
11.343374
11.285728
11.278042
11.263950
11.330564
11.429202
11.416392
11.497097
11.416392
11.357465
11.349779
11.301100
11.252421
11.199900
11.174279
11.161469
11.135848
11.149940
11.138411
11.210148
11.293414
11.474038
11.605984
11.629042
11.769955
11.764831
12.027440
12.304482
12.359566
12.513288
12.508846
12.407646
12.310288
12.119415
11.954164
11.806164
11.651160
11.593514
11.418014
11.270356
11.206305
11.125600
11.153783
11.169155
11.175560
11.192213
11.156344
11.142254
11.056425
10.992373
11.006465
10.974440
10.934728
10.945191
10.895231
10.911884
10.919571
10.917008
10.911884
10.877297
10.884983
10.910604
10.931100
11.013085
11.024614
10.973373
11.039987
11.013085
11.106600
11.197553
11.349995
11.519090
11.639290
11.789170
11.814791
11.719995
11.657225
11.590611
11.518874
11.563710
11.445856
11.471477
11.495815
11.479162
11.489410
11.479162
11.342093
11.308786
11.269074
11.197337
11.188371
11.092294
11.052582
11.046177
11.010308
11.032085
11.089731
10.960348
10.929604
11.115567
11.385863
11.554958
11.791732
11.878841
11.809667
11.810947
11.803261
11.955703
12.166131
12.283985
12.327540
12.272456
12.363409
12.378781
12.419774
12.417212
12.317292
12.236588
12.030343
11.874058
11.749799
11.564051
11.428262
11.340812
11.260108
11.202461
11.124319
11.065392
11.003903
10.920636
10.931100
10.867049
10.859363
10.864487
10.850395
10.938787
10.917008
10.710764
10.610845
10.595472
10.639027
10.641589
10.637746
10.604440
10.592910
10.646713
10.630060
10.845271
11.073294
11.428137
11.526775
11.680283
11.737929
11.885246
12.055622
12.213529
12.225059
12.267332
12.187908
12.131543
12.004723
11.943233
11.900959
12.055964
12.123857
12.267332
12.032905
11.852281
11.639631
11.488470
11.393675
11.263950
11.165312
11.053863
11.002622
10.979564
10.915512
10.850395
10.854239
10.896512
10.868330
10.852958
10.860643
10.813246
10.849114
10.856801
10.822213
10.818370
10.831181
10.788906
10.701797
10.738947
10.703078
10.709483
10.783782
10.863206
11.048954
11.106600
11.229578
11.186024
11.292349
11.228297
11.252637
11.201396
11.284662
11.292349
11.403797
11.403797
11.496031
11.498378
11.402301
11.475319
11.581644
11.734086
11.744334
11.743053
11.645696
11.538090
11.411268
11.380524
11.196056
11.134567
11.047458
11.002622
11.023118
10.985969
11.017994
10.998779
10.989812
11.005184
10.920636
11.001556
10.910604
10.956720
10.990027
11.037425
11.020772
11.024614
10.947753
10.975936
10.879859
10.925976
10.849114
10.881140
10.895231
10.983622
10.920852
11.069450
11.105319
11.161684
11.143750
11.130939
11.084823
11.116848
11.102757
11.052797
11.045111
11.051517
11.104038
11.045111
11.036144
11.114286
11.005400
10.997713
10.936224
11.019490
11.004118
11.129659
11.315407
11.599793
12.010787
12.177660
12.336507
12.328821
12.280142
11.915051
11.954762
11.939390
11.967572
11.848437
11.830503
11.719054
11.848437
11.815131
11.861248
11.786948
11.802320
11.593514
11.532025
11.401361
11.294695
11.230644
11.157626
11.035929
11.048738
10.896297
10.881140
10.913166
10.882421
10.874735
10.855519
10.928538
10.840147
10.879859
10.882421
10.998994
11.041268
11.153998
11.069450
11.091228
11.007961
11.027177
10.917008
10.847834
10.851677
10.929819
10.943911
10.896512
10.882421
10.846553
10.787625
10.759443
10.790188
10.835023
10.849114
10.963125
11.020772
11.230860
11.389707
11.525495
11.600860
11.512469
11.339531
11.295976
11.252421
10.957787
10.832246
10.897794
10.902918
10.983622
11.034863
11.031020
11.032301
11.102757
11.129659
11.031020
11.115567
11.014366
10.936224
10.961844
10.906760
10.964407
10.949035
11.001556
11.000276
10.963125
10.970812
10.977217
11.009242
10.992589
11.033582
11.054078
11.092509
11.105319
11.057921
11.010524
11.024614
11.000276
11.000276
10.969531
10.954159
10.927257
10.901636
10.773534
10.749195
10.892670
11.057921
11.075855
11.174495
11.178337
11.161684
11.115567
11.075855
11.105319
11.113006
11.310283
11.419169
11.535743
11.618793
11.625199
11.645696
11.556024
11.502221
11.398458
11.340812
11.297257
11.222958
11.243454
11.171717
11.187089
11.102542
11.155064
11.130724
11.170436
11.120476
11.176841
11.139691
11.228082
11.435608
11.527842
11.427921
11.493254
11.484286
11.404863
11.354903
11.357465
11.358747
11.370275
11.365151
11.325439
11.329283
11.262670
11.164031
11.064111
11.079483
11.140972
11.175560
11.074359
10.889892
10.945191
10.869611
10.877297
10.938787
11.009242
11.031020
11.068170
11.068170
11.124535
11.091228
11.187304
11.252637
11.309002
11.376896
11.394831
11.451195
11.447137
11.511188
11.525279
11.600860
11.718714
11.702061
11.905743
12.045374
12.497916
12.668974
12.882905
12.768894
12.753522
12.583146
12.557526
12.300040
12.242393
11.981065
11.938791
11.893273
11.853561
11.739551
11.852281
11.999599
12.406963
12.549157
12.694594
12.647197
12.465292
12.251361
11.977222
11.836309
11.621696
11.402641
11.385648
11.293414
11.339531
11.329283
11.249860
11.226801
11.138411
11.206305
11.187089
11.366432
11.367713
11.588049
11.476601
11.497097
11.374119
11.472757
11.361308
11.425360
11.483006
11.719995
11.944174
12.178942
12.286548
12.251960
12.200719
12.052120
11.912489
11.765171
11.624259
11.512810
11.453882
11.307506
11.272918
11.247297
11.252421
11.242173
11.242173
11.222958
11.248578
11.262670
11.246017
11.206305
11.287009
11.316472
11.450980
11.549619
11.516312
11.556024
11.511188
11.457385
11.401020
11.361308
11.343374
11.311348
11.302382
11.231925
11.292133
11.233206
11.251141
11.192213
11.242173
11.025681
11.226801
11.367713
11.588049
11.730243
11.940331
11.974918
12.146915
12.272456
12.348037
12.251960
12.396715
12.281424
12.245555
12.193032
12.358285
12.546595
13.000759
13.149890
13.038441
13.240842
13.075590
12.692565
12.633637
12.332597
12.073298
11.832467
11.802320
11.734426
11.911207
11.891993
12.052120
11.993193
11.991912
11.968854
11.935547
11.822817
11.788230
11.847157
11.880463
11.857405
12.012408
12.039310
12.102080
12.275018
12.149478
12.218653
12.308325
12.582463
12.793234
12.987949
12.891123
12.869346
12.592645
12.722028
12.809137
12.983356
12.838601
12.950050
12.793765
12.642605
12.335159
12.095077
11.986189
11.913171
11.740831
11.612729
11.661408
11.813850
12.080302
12.433865
12.596555
12.843193
12.791952
12.649759
12.607485
12.626700
12.631824
12.556245
12.493474
12.513970
12.481945
12.642073
12.578022
12.539591
12.466573
12.264172
12.264172
12.115573
12.125821
12.032306
11.978503
11.895237
11.806164
11.658846
11.528182
11.428262
11.407425
11.404863
11.404863
11.794294
12.072276
12.453080
12.599799
12.617733
12.718934
12.643353
12.725339
12.875219
12.999478
13.017944
12.950050
12.853973
12.552933
12.347969
12.141193
11.946478
11.839470
11.601200
11.521777
11.473098
11.371897
11.322878
11.465071
11.707185
11.822476
11.908305
11.982604
12.111047
12.262208
12.023937
12.203280
12.081584
11.881744
11.847157
11.779263
11.813850
11.745955
11.689590
11.584547
11.576860
11.542274
11.398799
11.260108
11.149940
11.146096
11.003903
10.984688
10.942414
10.942629
10.988746
11.216768
11.572892
11.944174
12.362127
12.294233
12.331383
12.392872
12.337789
12.250679
12.006003
11.818974
11.801040
12.098237
12.403120
12.339069
12.549157
12.668974
12.540873
12.412770
12.367934
12.421737
12.253923
12.225740
12.061769
11.865773
11.730583
11.818974
11.945795
11.872777
11.648598
11.611448
11.697277
11.679342
11.630664
11.512810
11.556364
11.666533
11.462850
11.443634
11.221677
11.263950
11.530403
11.912148
11.978761
12.232744
12.296796
12.191751
12.072617
12.030343
11.808726
11.788230
11.765171
11.574299
11.333467
10.947538
10.861925
10.824775
10.785064
10.680019
10.722294
10.610845
10.726136
10.624936
10.578819
10.464808
10.366169
10.255744
10.224999
10.408185
10.428681
10.655422
10.802740
11.029481
11.074574
11.104038
11.110443
11.137344
11.312845
11.273133
11.328218
11.421732
11.508842
11.584207
11.480443
11.553462
11.129443
10.948819
10.838866
10.703078
10.740228
10.514768
10.617249
10.677458
10.831181
10.896512
11.092509
11.089947
11.159122
11.138626
11.261604
11.493469
11.562428
11.368995
11.339531
11.215272
11.139691
11.174279
11.176841
11.198619
11.351060
11.435608
11.427921
11.183247
10.907826
10.726136
10.619812
10.590348
10.325176
10.213470
10.216032
10.378721
10.468393
10.623397
10.825799
10.847576
10.771996
10.792492
10.947495
10.990027
11.073294
10.977217
10.963125
10.896512
10.749195
10.594192
10.522454
10.603158
10.876016
10.852958
10.947753
10.768411
10.631341
10.558323
10.740228
10.899075
10.829899
10.823494
10.705640
10.794030
10.943911
10.726136
10.695392
10.514768
10.450717
10.401780
10.381284
10.492733
10.488890
10.488890
10.396656
10.291613
10.274959
10.181444
10.175039
9.957265
10.117393
10.273678
10.342853
10.460707
10.506824
10.445334
10.504262
10.641332
10.666952
10.565751
10.313390
10.253181
10.342853
10.113550
10.017473
9.926520
10.110268
10.151260
10.217874
10.296016
10.393373
10.376720
10.201221
10.202501
10.298578
10.331884
10.289611
10.394654
10.413870
10.285207
10.340291
10.144295
10.143014
9.948298
9.957826
9.932205
10.020596
10.465111
10.642612
10.690010
10.526039
10.465831
10.345415
10.289050
10.335167
10.194255
10.089211
9.980324
10.044374
10.091773
9.867594
9.537650
9.596578
9.668315
9.635008
9.572238
9.485128
9.561990
9.569676
9.531245
9.476161
9.549180
9.782326
9.879683
10.050059
10.105144
10.240932
10.148698
10.290892
9.934768
9.906585
9.986009
9.956545
9.987289
10.047498
10.028282
9.923239
9.936049
9.759268
9.836129
9.677282
9.659348
9.878403
9.886088
9.989852
10.053903
10.023158
9.957826
10.138450
10.212749
9.925800
9.756705
9.759268
9.811790
9.801541
9.777202
9.815633
9.897618
9.920676
9.813070
9.787450
9.677282
9.760549
9.797698
9.822038
9.737490
9.736209
9.641414
9.605545
9.622198
9.670877
9.883527
9.975760
9.936049
9.927081
9.918115
9.814351
9.906585
9.839972
9.769516
9.941173
9.814351
9.708027
9.587610
9.722117
9.919395
10.021877
9.959107
9.702903
9.610669
9.513311
9.664472
9.426202
9.328844
9.367354
9.487770
9.392975
9.349420
9.433968
9.422438
9.499299
9.441653
9.537730
9.588971
9.485209
9.442934
9.321238
9.362230
9.436529
9.399380
9.485209
9.432686
9.426281
9.419876
9.506986
9.486489
9.462150
9.501862
9.522358
9.586409
9.659428
9.696577
9.816993
9.869514
9.786248
9.688890
9.310989
9.293055
9.571036
9.761909
9.682486
9.536449
9.501862
9.421157
9.349420
9.222598
9.521077
9.624840
9.499299
9.398099
9.450621
9.407065
9.295617
9.234128
9.392975
9.592814
9.722198
9.768314
9.755504
9.724759
9.653022
9.576160
9.572318
9.704263
9.731165
9.797777
9.718354
9.581285
9.563351
9.573599
9.459588
9.410909
9.435248
9.291774
9.222598
9.465993
9.363511
9.409628
9.136770
9.250781
9.168796
9.351982
9.255905
9.385288
9.455745
9.371197
9.410909
9.435248
9.437810
9.595376
9.731165
9.831084
9.837489
9.697858
9.601781
9.640212
9.719635
9.551822
9.597939
9.481365
9.505705
9.469836
9.528763
9.530044
9.556946
9.578723
9.641493
9.586409
9.719635
9.537730
9.597939
9.781124
9.653022
9.650460
9.796496
9.805464
9.706825
9.782405
9.829803
9.857985
9.795216
9.726041
9.800340
9.818274
9.720917
9.714511
9.713230
9.619716
9.763190
9.850300
9.931004
9.979604
9.994976
10.024439
9.915552
10.032125
9.879683
9.901461
9.898899
10.199939
10.210187
10.256304
10.234527
10.356224
10.222998
10.096176
9.987289
10.093615
9.946297
10.110268
9.938611
10.141012
10.238370
10.180724
10.199939
10.133326
10.033406
9.959107
10.135888
10.135888
9.993694
9.815633
9.928363
9.919395
9.986009
10.067994
10.060308
10.011629
10.041092
9.928363
10.061588
10.025720
10.148698
10.038530
10.205063
10.167913
10.117953
10.207625
10.135888
10.162789
10.155104
10.266552
10.161509
10.187129
10.074399
10.021877
10.035968
9.966793
9.957826
9.970636
10.224278
10.265271
10.180724
10.044935
10.010347
10.010347
9.790012
9.841253
9.877122
10.139731
10.010347
10.224278
10.023158
10.226841
9.801541
10.112829
10.176881
10.348537
10.349819
10.404902
10.389530
10.363910
10.285768
10.197377
10.201221
10.194815
10.313951
10.003942
10.125640
10.092333
10.007786
10.062870
10.176881
10.185848
10.192253
10.135888
10.135888
10.142293
9.996257
10.062870
9.865592
10.064151
10.093615
10.256304
10.262710
10.376720
10.222998
10.311388
10.228122
10.220435
10.335728
10.366472
10.402341
10.334447
10.531724
10.182725
10.205784
10.301861
10.154543
10.280083
10.081525
10.313390
10.385127
10.540131
10.470955
10.367192
10.340291
10.341572
10.381284
10.085367
10.254462
10.184007
10.264710
10.359507
10.359507
10.474798
10.332604
10.450459
10.371036
10.360787
10.345415
10.577280
10.622116
10.748938
10.759186
10.783525
10.690010
10.549098
10.570875
10.751499
10.834765
10.638769
10.705382
10.722035
10.706663
10.661828
10.590091
10.536287
10.547816
10.472237
10.501699
10.506824
10.620835
10.540131
10.602901
10.588809
10.707945
10.679762
10.478642
10.643893
10.660546
10.773276
10.622116
10.634926
10.702821
10.629802
10.668233
10.656704
10.897536
10.873197
11.074317
11.047673
10.965688
10.754319
11.054078
11.019490
10.934943
11.048954
10.983622
11.124535
10.842710
10.872173
10.742790
10.809402
10.836305
10.717170
10.891388
10.890107
11.074574
10.913166
11.024614
10.975936
10.991308
11.039987
10.992589
11.184743
11.223173
11.251356
11.280819
11.393549
11.417889
11.179619
11.268009
11.374334
11.401236
11.323093
11.242389
11.211644
11.298754
11.394831
10.946472
11.488345
11.622637
11.704622
11.408706
11.388209
11.516312
11.502221
11.494534
11.384367
11.549619
11.338250
11.498378
11.354903
11.274199
11.307506
11.208867
11.266513
11.247297
11.194776
11.225520
11.490691
11.585487
11.421516
11.340812
11.252421
11.280604
11.334407
11.269074
11.444574
11.623918
11.702061
11.580363
11.547056
11.562428
11.557304
11.491973
11.458666
11.442013
11.320315
11.444574
11.436889
11.599579
11.503502
11.591892
11.599579
11.659786
11.661068
11.757144
11.891652
11.941611
11.841692
11.807104
11.630323
12.010787
12.011127
12.152040
12.102080
12.084146
12.120014
11.949638
12.190471
12.221215
12.102080
12.063649
11.973978
12.079021
11.904802
12.000879
11.993193
12.198156
12.171255
12.336507
12.423616
12.323697
12.395434
12.187908
12.303201
12.267332
12.164850
12.309606
12.128982
12.421055
12.309606
12.501759
12.554963
12.589551
12.435828
12.319255
12.442233
12.406364
12.465292
12.471697
12.492193
12.692033
12.583146
12.695876
12.813730
12.585708
12.800920
12.748398
12.689470
12.744555
12.585708
12.658726
12.771456
12.903401
12.903401
12.830383
12.622857
12.662569
12.661288
12.771456
12.725339
12.823978
12.768894
12.572898
12.693314
12.761208
12.793234
12.711248
12.620296
12.843193
12.839351
12.667693
12.790671
12.926460
12.873938
13.034066
12.880875
12.707937
12.846287
12.866783
13.019225
13.033317
12.819386
12.932116
12.868065
12.911619
12.578553
12.640042
12.861659
12.946207
13.294645
13.336919
13.402251
13.354854
13.317703
13.032036
13.058937
12.967984
12.877031
12.938520
12.845006
12.993605
13.124269
13.043565
13.155014
13.183196
13.222908
13.318985
13.316422
13.290802
13.216503
13.242124
13.294645
13.352291
13.362539
13.377912
13.301050
13.320266
13.466302
13.386962
13.561181
13.385680
13.292166
13.581677
13.367746
13.606016
13.536841
13.776392
13.644447
13.381838
13.549651
13.433079
13.270389
13.108979
13.270389
13.508658
13.643167
13.741805
13.755896
13.808418
13.840444
13.871188
13.919867
13.860940
14.058217
14.195581
14.139216
14.218639
14.127687
13.852267
14.100785
14.116158
14.203267
14.341618
14.394139
14.519680
14.708574
14.779031
14.852049
14.950687
15.026987
14.923224
14.955250
14.787436
14.947564
15.084633
15.053888
15.156370
15.142280
14.902728
14.925786
14.363418
14.807213
14.972465
15.312655
15.048764
15.214017
15.156370
15.112816
15.092319
15.000086
15.110253
15.074385
15.107692
15.000086
14.971903
15.157652
15.139717
15.315217
15.338276
15.203769
15.498404
15.528749
15.476227
15.600486
15.637635
15.677347
15.631230
15.679909
15.713216
15.784953
15.943800
16.025785
16.152847
16.179749
16.108011
16.143879
16.152847
16.318098
16.207932
16.365498
16.300165
16.306570
16.375746
16.366777
16.521782
16.735870
16.729465
16.665413
16.651323
16.706406
16.706406
16.589834
16.484789
16.619297
16.547560
16.561651
16.676943
16.893436
16.979265
17.113199
16.960756
17.028650
17.083735
17.191341
17.327129
17.412958
16.361238
16.019779
17.053564
17.310476
16.885176
17.228491
17.351469
17.411676
17.362997
17.461636
17.608419
17.626354
17.694248
17.810822
17.690405
17.276634
17.545649
17.573832
17.669909
17.390646
17.687843
18.074711
18.566645
18.950096
18.985966
18.966967
18.783781
18.439184
17.912468
18.065765
18.629416
18.542730
17.884285
17.959440
18.336061
17.987623
18.051674
18.081137
18.031178
17.873611
17.830057
17.728855
17.413725
17.300974
17.641726
18.074711
18.448792
18.564083
18.604219
18.731041
18.652899
18.751537
18.741289
18.784845
18.778439
18.800217
18.801498
18.837366
18.816870
18.883484
18.965469
19.011585
19.191145
19.216766
19.224451
19.219328
19.239824
19.235981
19.261602
19.264164
19.274412
19.293627
19.325653
19.361521
19.426853
19.502434
19.627316
19.633720
19.667028
19.659342
19.693930
19.692648
19.809221
19.815626
19.895050
20.029556
20.165800
20.023607
19.851950
19.812239
19.922407
20.026169
20.019764
20.033855
19.992863
20.018484
20.071005
20.027451
20.045385
20.141462
20.133776
20.090221
20.138899
20.206793
20.251629
20.324648
20.338739
20.395103
20.468122
20.507833
20.639158
20.655811
20.646843
20.603289
20.590479
20.631472
20.639158
20.591761
20.580231
20.689117
20.769821
20.858213
21.063177
21.283072
21.254889
21.372742
21.074265
20.859053
20.846243
20.957691
21.184433
21.184433
21.213896
21.256170
21.304848
21.380428
21.406050
21.463696
21.521341
21.687168
21.697416
21.693573
21.767872
21.788368
21.819113
21.817831
21.803741
21.779402
21.751219
21.742252
21.762749
21.764029
21.757624
21.819113
21.880602
21.934404
22.009985
22.172066
22.273266
22.347565
22.426989
22.498726
22.674866
22.710733
22.690237
22.690237
22.668459
22.676146
22.688955
22.691519
22.678707
22.672302
22.710733
22.761974
22.828588
22.841398
22.828588
22.814497
22.806810
22.790157
22.764536
22.786314
22.859333
22.932350
22.954128
22.960533
22.975904
23.002808
23.119640
23.196501
23.224684
23.313074
23.497541
23.962521
23.857477
23.880535
23.875412
23.863882
23.963802
24.040663
24.202328
24.051167
23.930752
23.812897
23.794962
23.896164
23.802649
23.825706
23.579750
23.595123
23.622025
23.524668
23.634834
23.473427
23.402714
23.369408
23.078615
22.940266
22.863436
22.858311
22.835253
22.690496
22.689217
22.937735
22.771202
22.594419
22.467600
22.232912
22.258533
22.439157
22.139397
22.112495
22.229069
22.208572
22.195763
22.063818
22.007452
22.070223
21.930592
21.798006
21.610977
21.562300
21.536678
21.526430
21.407295
21.328482
21.241371
21.318233
21.118393
21.055624
21.146576
21.190130
21.172197
21.133766
21.088930
21.114550
21.115831
21.137609
21.181164
21.222157
21.269554
21.259306
21.429682
21.341291
21.381002
21.314390
21.368193
21.325920
21.391251
21.425838
21.455303
21.438650
21.396376
21.429682
21.242653
21.391251
21.701260
22.016390
21.376551
20.876280
20.424786
20.514898
20.381672
20.359896
20.306091
20.183113
20.149807
20.138277
20.216421
20.275347
20.444443
20.375267
20.594322
20.935074
21.104170
21.179308
21.341997
21.001245
20.373545
20.375267
20.489279
20.904329
20.824905
21.038837
20.647684
20.688677
20.892359
21.233110
21.514936
21.589809
21.541132
21.601339
21.716631
21.684605
21.119675
20.935207
20.916698
21.297163
21.210052
21.064016
20.933352
21.014055
21.015337
21.012775
20.874424
20.878267
20.788595
20.800125
20.374826
19.873106
19.372849
18.909943
18.473772
18.969313
18.166111
18.481241
19.096132
19.633099
20.093609
20.316961
20.369484
20.400229
20.413038
20.427130
20.416882
20.382294
20.414320
20.411757
20.432253
20.509115
20.763416
20.814657
20.731392
20.627628
20.709614
20.741640
20.809534
20.878710
20.958132
20.986315
20.950447
20.891520
20.881271
20.859493
20.841558
20.868462
20.955570
21.026026
21.198523
21.240797
21.256170
21.248484
21.270260
21.258732
21.304848
21.340717
21.377867
21.406050
21.404768
21.418859
21.418859
21.399643
21.452166
21.503407
21.602619
21.605183
21.594934
21.566751
21.550098
21.593653
21.682043
21.783245
21.852419
21.865231
21.852419
21.816551
21.794773
21.753780
21.726879
21.723036
21.609026
21.348978
20.875000
20.372263
19.879511
20.154272
20.630812
20.815939
21.070862
20.933352
20.880829
20.414537
20.044764
20.011457
20.021706
20.028111
19.951248
19.875010
19.755875
20.583414
20.696804
20.873585
20.680151
20.685274
19.873106
19.371567
19.196892
19.529959
19.149494
18.881762
19.086102
19.412762
19.594667
19.637564
19.866867
20.064144
20.607754
21.086235
21.398363
21.458570
21.513655
21.653860
21.852419
21.509106
21.798616
20.876280
21.090918
20.669460
20.807812
20.379950
20.809534
20.735235
20.931231
19.914099
19.371567
18.868950
18.639025
19.230858
19.557518
20.070549
20.597506
20.882551
21.036274
21.260012
21.609732
21.876759
20.927521
21.151125
21.393238
20.727106
20.372263
19.871824
19.371567
19.436443
19.934761
20.107698
20.524487
20.660934
20.999125
20.868019
21.160093
20.551607
20.374826
20.092161
20.771103
21.081110
20.625906
20.374826
19.875668
20.428411
20.628250
20.714739
20.644281
19.871824
19.370285
20.144850
20.635937
20.936356
20.915859
21.067019
21.280508
21.110132
21.079388
21.175465
21.093479
21.160093
21.080669
20.549046
20.467060
20.161337
19.932034
20.071005
20.437378
20.352831
20.040260
20.434816
20.646185
20.461096
21.047804
21.561052
20.876280
20.376106
20.147245
20.990158
21.303568
21.265137
21.435513
21.540556
21.826799
22.027920
22.178471
22.149008
22.213058
22.425709
22.551249
22.703047
22.655649
22.824745
22.516018
22.261095
21.947245
21.895365
21.780073
21.821066
21.936357
22.038839
21.947887
21.564861
21.377832
20.875000
20.868019
20.700205
21.116537
21.320221
21.526464
21.592371
20.991571
20.943600
20.679708
20.631031
21.198523
21.622541
21.658985
21.876759
21.094053
20.875000
20.921822
21.330469
21.035833
21.299725
20.533672
20.666899
20.374826
20.111376
20.358614
20.397045
20.317621
20.226669
20.327869
20.379110
20.532833
20.316339
20.562296
20.782633
21.067019
21.253607
21.076826
20.871862
20.464497
20.986315
20.025547
20.462378
19.916660
19.371567
19.533802
19.230198
19.089287
18.870232
18.733820
18.778656
19.333340
19.551113
19.439005
19.982159
19.102097
19.585043
19.708021
19.843809
20.141006
20.573166
20.602009
20.454691
20.308655
20.089600
19.874388
19.917282
19.912159
19.759716
19.846827
19.760998
20.384855
20.172207
20.282373
20.337458
20.181173
20.095345
20.430973
20.404072
20.482214
19.489422
19.155899
19.391607
19.109783
18.903538
18.966967
19.177053
18.960562
19.341024
19.457598
19.499872
19.168709
19.610662
19.946291
20.006498
20.031294
20.209356
20.242662
19.586779
19.892942
19.886538
20.003111
19.994144
19.832735
19.543224
19.558596
19.443304
19.321152
19.300655
19.255819
19.225075
19.202017
19.350615
19.422352
19.054699
19.271191
20.002655
19.561159
19.653393
19.369005
18.871513
18.508360
18.977215
19.165525
19.274412
19.341024
18.886263
18.372572
17.867632
17.776255
18.583298
19.119192
19.516525
19.565826
19.614506
19.546612
19.816908
19.783600
19.804096
19.850214
19.733641
19.800253
19.340366
18.954779
18.682579
18.756878
18.785061
18.835022
18.842707
18.910601
18.876015
18.782499
18.806839
18.890104
18.922131
18.957998
19.064323
19.164244
19.451193
19.127094
19.244947
19.499872
19.642689
19.419790
19.490246
19.488966
19.472313
19.731079
19.520990
19.654217
19.896330
19.181520
19.049574
19.128998
19.164867
19.246853
19.477436
19.581200
18.916348
18.367447
19.073074
19.499872
19.711863
19.933479
20.044930
20.332335
20.473246
20.523207
20.591761
20.637877
20.561016
20.520023
20.416260
20.366301
20.380392
20.372705
20.467501
20.345804
20.388077
20.111376
19.883354
19.831453
19.721287
19.837858
20.127371
20.495024
20.239479
19.873106
19.424089
18.870232
19.157839
19.529335
19.699053
18.957340
18.781218
19.077135
19.601072
20.087202
20.100470
19.374128
18.945812
18.630058
19.045109
18.451996
18.627279
18.934725
19.132002
19.116846
19.476814
19.580576
19.806660
19.617067
19.471031
19.649094
19.737484
19.605539
19.824593
19.062386
19.528677
19.599133
19.645250
19.633720
19.617067
19.531239
19.326275
19.066227
18.870232
18.621090
18.740225
18.786343
18.890104
18.368729
17.871475
18.300192
18.334780
17.999151
18.386021
18.610199
19.050016
19.209080
19.364084
19.398670
19.316685
19.426853
19.390985
19.300032
19.202675
19.161682
19.027174
18.901634
18.833740
18.640306
18.750473
19.186022
18.922131
18.843988
18.367447
18.740009
19.014147
19.210361
19.306437
19.259039
19.481937
19.265444
19.574171
19.914265
19.960382
19.896330
19.725954
19.997532
20.356674
20.087658
19.901911
19.394625
19.319870
19.342928
19.383921
19.176395
19.193048
19.310904
19.222513
19.216108
19.300655
19.021393
19.000896
18.868950
18.902916
18.929817
18.892668
19.464003
19.643347
20.050053
19.444586
19.018829
18.984243
18.674892
18.831179
19.542145
20.089766
20.219604
20.074848
19.532976
19.377972
19.196892
18.973995
19.393547
19.128376
19.096350
18.367447
18.782282
17.912468
18.411640
17.891546
17.728855
18.411640
18.633259
18.673395
18.373636
18.244253
18.020075
18.355701
18.344173
18.135366
18.454340
18.491489
18.604219
18.668272
18.061068
17.938089
17.758320
17.639185
17.903074
18.000433
18.079857
17.819809
17.534142
17.823652
17.455997
17.707058
17.897930
17.983759
18.247671
18.359119
18.530777
17.868914
17.593067
17.576414
17.625093
17.694269
17.668648
18.425732
18.515404
18.779720
18.198135
18.163549
18.515829
18.860424
18.381323
18.697735
18.440248
19.142250
19.490904
18.944530
18.773533
18.449432
18.483805
18.465870
18.508144
18.750257
19.055140
19.238543
19.216766
19.492186
19.679838
19.673433
19.570951
18.892010
19.159121
18.368729
18.627279
18.048256
18.568352
18.789968
18.239128
18.554260
18.418472
18.458183
18.257063
18.128962
18.140490
18.111027
18.107183
18.173798
18.263468
18.327520
18.383884
18.415911
18.444092
18.414629
18.223757
18.298056
18.259624
17.959866
18.133659
18.005556
17.908199
17.783939
17.826214
17.899233
17.958158
17.873611
17.908199
18.163122
18.338623
18.549992
19.005180
18.920849
18.398191
17.867632
17.368889
17.923552
17.614824
17.669909
17.017868
16.989685
17.092703
17.108074
17.046585
17.065800
17.049147
16.594385
16.936417
16.444504
15.839154
15.385514
16.083431
16.101606
15.675026
16.429548
16.614016
17.113771
17.114479
16.744265
16.439381
16.837070
17.102243
17.275888
17.142662
16.338181
16.528345
16.456608
16.188873
16.445078
16.407928
15.939075
16.015778
15.990157
16.351406
15.384233
15.736274
15.882311
15.869500
15.996322
16.365498
16.615295
17.075340
16.340742
16.605206
16.775581
16.828104
16.673100
16.580866
16.587271
16.679504
16.969017
16.386858
15.949323
16.242519
16.576866
16.477104
16.947239
16.454044
16.186312
16.186312
16.200403
15.872461
15.910733
15.899204
15.667339
15.732672
15.487996
15.535394
15.534113
15.758292
16.384712
16.346281
16.155409
16.328346
16.583271
16.830666
16.870377
16.847319
16.569338
16.337473
16.323381
15.892958
15.604569
15.653248
15.667339
15.686555
15.778789
15.339397
14.838277
15.448443
15.585513
16.032190
16.209211
16.391117
16.535873
16.926743
16.422020
15.868618
15.343241
15.904088
14.839558
15.570141
16.112894
16.603767
16.870377
16.688473
16.315695
16.313133
16.783268
16.822979
16.536030
16.378466
16.455326
16.867815
16.835791
16.609049
16.245239
16.030027
15.862213
15.339397
14.839558
15.435634
15.579108
16.010412
15.694241
15.338117
15.690157
15.963015
16.530748
15.839154
15.439318
15.537715
16.012976
16.529467
16.971579
17.205433
17.274607
17.291260
17.295103
17.274607
17.227209
17.151628
17.051710
17.101669
17.231052
17.168282
17.046585
16.842903
16.868523
16.853151
16.773727
16.404793
16.483509
16.797359
16.651323
16.455326
15.839154
15.339397
14.838277
15.229389
15.576546
15.846442
15.733712
15.793920
15.733712
15.659412
15.505690
15.345562
15.328909
15.545402
15.259733
15.467259
15.535153
15.524905
15.485193
15.509533
15.677347
15.676065
15.644040
15.599204
15.556931
15.535153
15.508252
15.498004
15.499285
15.509533
15.538997
15.558211
15.560774
15.606891
15.451887
15.436515
15.421143
15.398084
15.394241
15.396803
15.391679
15.395522
15.392960
15.395522
15.430110
15.567179
15.764457
15.916898
15.980949
16.065737
16.073423
15.997843
15.879989
15.764697
15.671183
15.608413
15.557172
15.539237
15.530270
15.530270
15.513617
15.503368
15.503368
15.530270
15.571262
15.686555
15.714737
15.739077
15.637876
15.338117
14.842120
14.336516
14.289680
15.001928
15.612414
15.535153
15.682471
14.839558
14.604250
15.558612
15.818259
15.874624
15.610734
15.401927
15.223865
14.872865
14.436436
14.820024
14.726508
14.957092
14.962936
15.052608
14.659334
14.733633
15.025706
15.266539
15.416418
15.445882
15.499684
15.343000
15.787515
16.007851
16.173344
16.289917
16.300165
16.013216
15.522584
15.338117
14.839558
14.740038
14.974465
14.857892
14.912976
14.983433
15.216578
15.275506
15.276787
15.294721
15.342119
15.374145
15.344681
15.283192
15.354929
15.192239
15.180710
15.490718
15.310974
15.086796
15.063737
15.045803
14.966379
14.773345
14.796403
14.802809
14.859174
15.138436
15.333152
15.167900
14.996243
14.914257
15.011615
15.066699
15.179429
15.296002
15.047483
14.383914
14.768783
14.786716
14.201289
14.631713
14.053971
13.879752
13.336015
12.856618
12.879594
12.887280
13.051250
13.260057
13.431714
13.554692
14.108177
14.578607
15.046764
15.328028
15.493279
15.704248
15.732430
15.701686
15.761894
15.100886
14.999686
14.972784
15.326346
15.175186
14.866460
14.738757
14.459495
14.978870
14.970622
14.681111
14.845082
14.567101
14.337797
14.242282
14.030913
14.124428
14.041162
14.048847
14.187198
14.208976
14.247406
14.262778
14.252530
14.258935
14.340920
14.212818
14.369103
14.520264
14.706012
14.602249
14.690639
14.782873
14.803370
14.785436
14.002730
13.855413
14.040577
14.300625
14.249384
14.245541
14.328808
14.442819
14.413355
14.578607
14.927629
14.934034
14.835396
14.762377
14.727790
14.693202
14.670143
14.607373
14.325548
14.093683
13.837479
13.932972
14.009832
14.022643
13.895822
13.674205
13.770282
13.926566
13.904789
13.844581
13.852267
13.806150
13.760034
13.734413
13.761314
13.785654
13.774125
13.740818
13.729289
13.716478
13.728008
13.601187
13.624245
13.669081
13.760034
13.939377
13.888136
13.936814
14.002147
14.111033
14.193019
14.321121
14.323684
14.304468
14.248103
14.208391
14.219920
14.310873
14.428727
14.505589
14.618902
14.741880
14.629150
14.470304
14.425468
14.315300
14.280713
14.232034
14.200008
14.185917
13.942523
13.756190
13.715198
13.679329
13.441059
13.385680
13.604735
13.936521
14.082557
14.150745
13.724165
14.276285
14.454348
14.685515
14.738038
14.790560
14.677830
14.627870
14.583034
14.535636
13.910497
13.820242
13.952187
14.040577
13.994460
13.954749
13.989336
14.126406
14.186614
14.240417
14.230168
14.235292
14.176366
14.128968
14.084132
14.036735
14.005990
13.999584
13.979088
14.026486
14.123844
14.109753
14.080289
14.052107
14.002147
13.976526
14.025205
14.071321
14.146902
14.199424
14.216078
14.159713
14.120001
13.751066
13.425687
13.257578
12.832279
13.605933
13.725151
13.296009
13.216585
13.065425
12.856618
12.952612
13.010258
12.394086
12.923898
13.072496
12.997448
13.006415
13.034597
13.178072
13.520105
13.784079
13.963422
14.159713
14.146902
14.095661
14.093100
14.194300
14.127687
13.688296
13.883012
13.858672
14.046983
14.332650
14.155869
14.167398
13.835614
13.565318
13.336015
12.980878
12.834841
12.332597
12.362810
12.265452
12.448639
12.647197
11.842715
11.861248
12.144354
12.351879
12.406963
12.563248
12.849599
13.039190
13.207536
13.331795
13.398408
13.506014
13.354936
13.256297
13.397210
13.509940
13.516345
13.556057
13.515064
13.490725
13.389524
13.226833
13.139724
13.144848
13.079516
12.846370
12.683598
12.492725
12.627233
12.759177
12.815542
12.804013
12.787360
12.779674
12.597769
12.652853
12.632357
12.559339
12.534999
12.549090
12.558057
12.554214
12.547809
12.552933
12.542685
12.545247
12.567024
12.600331
12.687441
12.871907
13.057656
13.166543
13.212660
13.220345
13.181915
13.130674
13.079433
13.028193
12.967984
12.951331
12.933396
12.951331
12.938520
13.084558
13.162700
13.098649
13.053813
13.075590
12.998729
12.914182
12.937240
13.005134
13.103773
13.225470
13.192163
13.183196
13.196007
13.135798
13.038441
12.987200
12.941083
12.946207
12.915462
12.915462
12.905214
12.930835
13.012820
13.126831
13.238280
13.306174
13.335638
13.324109
13.285678
13.252372
13.199849
13.155014
13.122988
13.108897
13.126831
13.125550
13.155014
13.242124
13.376631
13.511138
13.704655
13.789203
13.800732
13.767426
13.716185
13.716185
13.714903
13.746929
13.740523
13.707217
13.662381
13.635480
13.611140
13.479196
13.468947
13.488162
13.490725
13.531717
13.618827
13.534279
13.630356
13.269108
13.257578
13.088483
12.980878
13.037243
13.014184
12.951414
13.208817
13.219065
13.376631
13.404813
13.399689
13.432996
13.461178
12.833560
12.331316
11.829905
11.347558
12.001820
12.116171
12.546595
12.558806
12.604923
12.781704
13.062248
13.502171
14.058217
14.544020
14.787997
14.702169
14.763659
14.745724
14.934034
14.814899
14.757253
14.706012
14.677830
14.630432
14.581753
14.495924
14.516420
14.504891
14.439560
14.413939
14.402410
14.367823
14.347326
14.317863
14.334516
14.385756
14.538198
14.749567
14.848206
14.909695
14.935315
14.987837
15.110253
15.149965
15.061575
15.026987
14.948845
14.842520
14.715699
14.611936
14.487677
14.505611
14.519702
14.377509
14.248687
14.018103
14.036037
14.074468
14.089840
13.901530
13.579410
13.661395
13.566599
13.566599
13.487176
13.439777
13.317786
13.217867
13.256297
13.180717
13.139724
13.121790
13.094889
12.962943
12.838684
12.675911
12.595207
12.604174
12.463262
12.487601
12.469666
12.447889
12.370496
12.171938
12.146317
12.239832
12.440952
12.421737
12.425580
12.357686
12.186028
12.139912
12.046397
11.909328
11.717773
11.621696
11.581985
11.548678
11.552522
11.501281
11.517934
11.430824
11.356184
11.290852
11.237049
11.263950
11.285728
11.257545
11.211429
11.231925
11.260108
11.217834
11.230644
11.320315
11.499659
11.666192
11.799418
11.978761
11.968854
11.952200
12.003441
11.915051
11.852281
11.781824
11.722898
11.703682
11.667813
11.667813
11.649879
11.633225
11.638350
11.637069
11.644755
11.674218
11.653722
11.680624
11.684466
11.675500
11.665252
11.615292
11.484627
11.378303
11.206305
11.060268
10.934728
10.759443
10.809402
10.764567
10.781220
10.692830
10.681301
10.738947
10.737666
10.827337
10.868330
10.827337
10.836305
10.762005
10.893950
11.002837
11.063046
10.863206
10.876016
10.966969
10.884983
10.837585
10.977217
11.291067
11.481939
11.673878
11.840411
11.964670
12.050839
12.058525
11.991912
11.894554
11.811288
11.736989
11.680624
11.676781
11.646036
11.644755
11.640912
11.626821
11.593514
11.587109
11.585828
11.614011
11.701120
11.884306
12.146915
12.335226
12.418492
12.451799
12.343595
12.315413
12.244956
12.183467
12.147598
12.152722
12.121978
12.089952
12.084828
12.080985
12.073298
12.125821
12.271857
12.443515
12.585708
12.670256
12.718934
12.753522
12.762489
12.708686
12.675380
12.626700
12.589551
12.542153
12.526781
12.524219
12.489632
12.472978
12.466573
12.497317
12.521657
12.507565
12.543434
12.565211
12.652321
12.850880
13.069935
13.454773
13.571429
13.645728
13.643167
13.559899
13.451013
13.338283
13.261421
13.197371
13.149972
13.124352
13.208899
13.477914
13.819947
14.069747
14.371081
14.406950
14.444099
14.368519
14.118720
14.503027
14.777749
14.689359
14.864859
14.681673
14.675267
14.481833
14.355012
14.293523
14.274307
14.216661
14.169264
14.119304
13.873347
13.460274
13.297290
13.112823
13.056458
12.859180
12.683598
12.474791
12.483758
12.397929
12.193715
11.952883
11.825379
11.820255
11.713930
11.546116
11.352682
11.240892
11.339531
11.345936
11.336968
10.920636
10.876016
10.938787
10.819651
11.034863
11.121972
11.142468
11.203958
11.212925
11.183461
11.270571
11.355119
11.160403
10.983622
11.042549
10.910604
10.808122
10.826056
10.817089
10.733823
10.887546
11.043830
11.113006
11.225736
11.189867
11.055359
10.888826
10.854239
10.627498
10.585224
10.526297
10.464808
10.454559
10.367192
10.291613
10.418433
10.593933
10.706663
10.760467
10.755342
10.761747
10.643893
10.561908
10.455583
10.349258
10.274959
10.237809
10.167353
10.283926
10.390251
10.418433
10.415872
10.363349
10.277521
10.200660
9.998258
9.904743
9.819475
9.861750
9.831005
9.810509
9.873279
9.839972
9.848939
9.796417
9.820757
9.921957
10.037250
10.112829
10.210187
10.270395
10.262710
10.270395
10.152541
10.125640
10.027001
10.079523
10.170476
10.215311
10.436929
10.554222
10.451740
10.378721
10.280083
10.114831
9.986729
9.994415
9.943174
9.750300
9.538932
9.667034
9.663191
9.883527
9.891212
9.911709
9.846377
9.783607
9.686249
9.804103
9.847658
9.846377
9.930924
9.886088
9.863030
9.746457
9.715713
9.708027
9.683687
9.805385
9.711869
9.655504
9.540213
9.353183
9.181605
9.186729
9.221317
9.212350
9.304584
9.414752
9.617153
9.665833
9.486489
9.545416
9.455745
9.316113
9.309708
9.330204
9.349420
9.272558
9.198259
9.189292
9.226441
9.332767
9.473679
9.895135
9.974559
10.035968
10.041092
10.157665
10.011629
9.791293
9.642694
9.583767
9.509468
9.458227
9.390333
9.303303
9.230285
9.323799
9.359668
9.271277
9.448058
9.568475
9.685048
9.711949
9.863110
9.864390
9.695296
9.679924
9.659428
9.787529
10.021956
10.284487
10.339571
10.529162
10.396656
10.198097
9.886809
9.781045
9.713151
9.766953
9.713151
9.636290
9.604263
9.568395
9.450541
9.415954
9.328923
9.300741
9.234128
9.305865
9.433968
9.608187
9.656865
9.633807
9.620996
9.574880
9.492894
9.322518
9.241814
9.225161
9.150861
9.107306
9.152143
9.268715
9.419876
9.326362
9.362230
9.396817
9.530044
9.549259
9.591533
9.767033
10.014271
10.133326
10.047498
10.056464
10.001381
9.892494
9.871998
9.788731
9.725961
9.651662
9.509468
9.423639
9.380085
9.328923
9.731165
9.763190
9.868234
9.837489
9.768314
9.776000
9.690172
9.713230
9.581285
9.533887
9.371197
9.386569
9.332767
9.354544
9.346858
9.427562
9.480084
9.357106
9.249500
9.166233
9.093215
9.123960
9.176481
9.222598
9.218756
9.170076
9.209788
9.020197
9.050941
9.266153
9.770876
10.041172
10.430523
10.499138
10.659266
10.709226
10.632364
10.490170
10.351820
10.228842
10.113550
9.981605
9.870155
9.743896
9.802822
9.856626
9.462070
9.469756
9.540213
9.645256
9.676001
9.627322
9.595297
9.586329
9.574800
9.629884
9.787450
9.784888
9.962950
9.558146
9.640132
9.295537
9.536449
9.410909
9.384007
9.372478
9.421157
9.309708
9.419876
9.482646
9.413471
9.665833
9.813149
10.052701
10.312669
10.343413
10.427961
10.169915
9.996977
10.090491
9.994415
9.839411
9.696497
9.559428
9.327563
9.250781
9.300741
9.395536
9.282806
9.267434
9.281526
9.264873
9.304584
9.263591
9.263591
9.450621
9.695296
9.743975
9.761909
9.883606
9.950219
10.033406
10.121797
10.052622
10.138450
10.203782
10.052622
9.910428
9.679844
9.731085
9.845096
9.842534
9.720837
9.720837
9.650380
9.663191
9.564552
9.545337
9.524840
9.503063
9.392895
9.708106
9.802901
9.941252
10.094895
10.240932
10.492012
10.552940
10.663109
10.431244
10.433805
10.340291
10.144295
10.040532
9.904743
9.900180
10.184566
10.440771
10.597776
10.633645
10.654141
10.792492
10.533726
10.294174
10.093054
10.172477
10.067433
9.877842
9.838691
9.820757
9.774640
9.716993
9.874559
10.010347
9.937329
9.842534
9.747738
9.738771
9.559428
9.517154
9.405705
9.344296
9.302022
9.218756
9.267434
9.453182
9.686329
9.942533
10.201221
10.240932
10.240932
10.216593
10.079523
9.964231
9.842534
9.732366
9.619636
9.487691
9.433887
9.421078
9.349420
9.335328
9.351982
9.407065
9.483927
9.368635
9.267434
9.296898
9.216193
9.116274
8.998420
8.952303
8.911310
8.825541
8.821699
8.773020
8.660290
8.643637
8.488633
8.682067
9.216253
9.223940
9.533947
9.755504
9.327642
9.430124
9.392975
9.399380
9.496737
9.937409
10.064151
10.088490
10.028282
9.938611
9.732366
9.491533
9.362150
9.531325
9.348139
9.052222
8.894657
9.034348
9.002323
9.035629
9.127863
9.244436
9.434028
9.624840
9.633807
9.629964
9.513391
9.235409
8.989452
8.888251
8.884469
8.602644
8.705126
8.760210
8.673100
8.644917
8.924181
8.767896
8.740994
8.488633
8.530907
8.552684
8.661571
8.560370
8.475822
8.483509
8.642356
8.454045
8.357968
8.348535
8.333162
8.398494
8.748213
8.754619
8.549655
8.771272
8.890407
8.753337
8.590648
8.508662
8.326756
8.292170
8.190969
8.152537
8.133323
8.107702
8.115388
8.096172
8.117950
8.102578
8.106421
8.083363
8.059023
8.033402
8.009063
8.015469
8.005220
8.018030
8.023154
8.066710
8.102578
8.215308
8.363907
8.407461
8.439487
8.445891
8.431801
8.390808
8.338286
8.294731
8.337005
8.383121
8.451015
8.413866
8.406180
8.322914
8.321632
8.276797
8.351096
8.377997
8.465107
8.451015
8.506100
8.521472
8.427958
8.431801
8.406180
8.358783
8.383121
8.375436
8.306260
8.263987
8.234523
8.296012
8.214026
8.147413
8.107702
8.064147
8.048775
8.034683
8.026998
7.962946
7.970633
7.948855
7.945012
7.901457
7.762064
7.864545
7.933721
8.013144
7.993928
7.965746
7.982399
8.041327
7.861983
7.818429
7.855578
7.914505
7.990086
7.973432
7.961903
7.928596
7.879918
7.818429
7.823553
7.813304
7.847892
8.040046
8.219388
8.347490
8.314184
8.287283
8.288564
8.177114
8.087443
8.040046
7.978556
7.905538
7.874794
7.940125
7.926034
7.955498
8.004177
7.931159
7.941407
7.896571
7.759501
7.653176
7.635242
7.585282
7.598093
7.568629
7.568629
7.632680
7.731319
7.735162
7.765906
7.806899
7.796651
7.961903
7.933721
7.937563
7.827395
7.829957
7.835082
7.849173
7.838925
7.952936
8.061823
8.214264
8.268067
8.277035
8.324432
8.351334
8.387202
8.435882
8.430519
8.462545
8.434362
8.258862
8.253738
8.224275
8.024435
7.983443
7.937326
7.831001
7.853016
7.823553
7.800494
7.800494
7.773592
7.760782
7.782560
7.749253
7.726195
7.703136
7.691607
7.692888
7.677516
7.659582
7.689045
7.676235
7.701855
7.813304
7.840206
7.946531
8.018268
8.047731
7.972151
7.955498
7.956779
7.858140
7.797932
7.792808
7.812023
7.806899
7.824833
7.863264
7.860702
7.849173
7.819709
7.801775
7.788965
7.778717
7.755658
7.712103
7.754377
7.847892
8.014425
8.115625
8.206578
8.230918
8.168147
8.145089
8.077195
8.014425
7.965746
7.905538
7.815866
7.837644
7.794089
7.751815
7.700574
7.698012
7.731319
7.672392
7.627556
7.648052
7.681359
7.664706
7.622432
7.657020
7.768468
7.872231
8.041327
8.177114
8.243728
8.271911
8.328276
8.346210
8.471750
8.685443
8.846852
8.778957
8.812264
8.827637
8.661103
8.570151
8.422833
8.380560
8.287045
8.397213
7.969351
8.097454
8.116669
8.091048
7.950136
8.125636
8.183282
8.249895
8.202497
8.386965
8.257582
8.707220
8.808421
8.960863
8.883188
8.871658
8.940834
8.977983
9.042034
9.026663
8.920338
8.769176
8.643637
8.565495
8.507848
8.528344
8.664133
8.952363
9.330265
9.554443
9.795216
9.929723
9.619636
9.907866
9.606826
9.292975
9.398099
9.795216
9.418595
9.432686
9.181605
9.059909
8.829325
8.684629
8.702563
8.573180
8.637232
8.733308
8.778144
8.834509
8.592396
8.569337
8.521939
8.573180
8.310571
7.839968
7.517388
8.029798
8.288564
8.406418
8.415385
8.493290
8.202497
8.581680
8.632921
8.565027
8.459983
8.335724
8.617549
8.673914
8.693130
8.793049
8.790487
8.636765
8.471512
8.475355
8.416429
8.452297
8.623954
8.764867
8.853257
8.923714
8.843476
8.921618
8.869097
8.657728
8.578304
8.547560
8.692315
9.070217
9.455805
9.553102
9.336610
8.884409
8.329786
8.434362
8.737965
8.434362
8.539407
8.535563
8.434362
8.207622
7.900176
7.904257
7.961903
8.179677
7.937563
7.974713
8.010582
8.136122
8.220670
8.242447
8.310341
8.373111
8.347490
8.300093
8.215546
8.151494
8.120749
8.111783
8.077195
8.068228
8.141246
8.255257
8.350053
8.438443
8.399776
8.374155
8.272954
8.258862
8.233242
8.220432
8.425395
8.582961
8.727716
8.768709
8.658542
8.655979
8.777677
9.026196
9.386630
9.550601
9.968154
10.019315
9.827162
9.731085
9.596578
9.463351
9.381366
9.354544
9.295617
9.348139
9.300741
9.177763
9.184168
9.180325
9.190573
9.218756
9.276402
9.193135
9.172639
9.138051
9.182887
9.246938
9.340452
9.464712
9.445497
9.416033
9.405785
9.364792
9.305865
9.266153
9.261029
9.266153
9.237970
9.240533
9.257186
9.278963
9.341734
9.398099
9.439092
9.448058
9.263591
9.120116
9.305865
9.344296
9.312270
9.404504
9.412189
9.409628
9.373759
9.322518
9.319956
9.317394
9.339171
9.358387
9.364792
9.381445
9.398099
9.381445
9.372478
9.348139
9.337891
9.316113
9.310989
9.302022
9.310989
9.337891
9.371197
9.417314
9.425000
9.423719
9.387851
9.378883
9.414752
9.554383
9.804183
10.015552
10.210187
10.278082
10.281924
10.242213
10.165352
10.067994
9.978322
9.907866
9.852782
9.801541
9.775921
9.749020
9.728523
9.701621
9.682406
9.664472
9.643975
9.631166
9.617074
9.610669
9.610669
9.617074
9.649099
9.688811
9.720837
9.722117
9.723399
9.723399
9.745176
9.819475
9.891212
9.934768
9.923239
9.906585
9.909147
9.884808
9.864311
9.811790
9.693935
9.592734
9.494096
9.400581
9.295617
9.300741
9.366073
9.400661
9.372478
9.455745
9.524920
9.472398
9.489051
9.391693
9.323799
9.179044
9.217474
8.906186
8.447640
8.361812
8.439487
8.394651
8.320352
8.260143
8.559903
8.736684
8.917308
8.857568
8.551403
8.343878
8.166629
8.053899
8.098735
8.101296
8.082082
7.879680
7.885042
8.056699
8.092567
8.011863
7.794089
7.722352
7.776155
7.704417
7.663424
7.717227
7.581439
7.502016
7.391848
7.371974
7.387346
7.256681
7.184944
7.029941
7.138827
7.183663
7.223375
7.159324
7.241309
7.214408
7.261806
7.298955
7.255401
7.359163
7.336105
7.247715
7.119612
7.145233
7.044032
7.006882
6.871094
6.869117
6.824282
6.774322
6.696179
6.680807
6.758949
6.653906
6.579607
6.502745
6.625723
6.575763
6.527084
6.431008
6.474563
6.521960
6.551424
6.504026
6.500183
6.534770
6.533490
6.423322
6.412224
6.463465
6.384041
6.340487
6.257220
6.314866
6.455779
6.728637
7.014305
7.016435
7.012592
7.025402
6.998501
7.025402
6.970318
6.985691
7.002344
7.025402
7.036932
7.068957
7.072800
7.113793
7.182968
7.253424
7.418676
7.525696
7.515448
7.655079
7.488546
7.539787
7.697353
7.444992
7.511605
7.332262
7.314328
7.397594
7.407842
7.292550
7.319452
7.131141
7.060685
7.216970
7.240028
7.407842
7.529539
7.302798
7.254119
7.193912
7.170853
7.301517
7.302798
7.259243
7.298955
7.322014
7.336105
7.338667
7.352758
7.392470
7.320733
7.318171
7.316890
7.379660
7.448835
7.569251
7.762685
7.898474
7.953558
8.005458
8.002895
8.037483
8.136122
8.268067
8.367987
8.428195
8.465107
8.508662
8.522753
8.376717
8.299855
8.185844
8.180720
8.207622
8.243490
8.234523
8.233242
8.201217
8.167910
8.121793
8.080800
8.056461
8.029559
8.012906
7.996253
7.982162
7.968071
7.969351
8.048775
8.179440
8.317790
8.384403
8.427958
8.451015
8.474074
8.568870
8.725155
8.878878
8.969831
9.040753
9.038192
8.993356
8.931867
8.884469
8.837071
8.811451
8.766615
8.730746
8.702563
8.670538
8.641074
8.614173
8.591115
8.574461
8.605206
8.680786
8.753804
8.812732
8.826823
8.829385
8.815293
8.785830
8.758928
8.730746
8.706407
8.683349
8.665414
8.644917
8.629545
8.624421
8.616735
8.618016
8.653885
8.715374
8.774301
8.810169
8.829385
8.825541
8.792235
8.758928
8.788392
8.888312
8.999761
9.112491
9.299520
9.387911
9.375100
9.343075
9.303363
9.258528
9.190633
9.117615
9.091994
9.057406
9.034348
8.994637
8.966455
8.948520
8.934429
8.940834
8.940834
8.962611
8.971579
8.977983
8.994637
8.992075
9.056126
9.195757
9.380224
9.512170
9.619716
9.636369
9.608187
9.551822
9.467274
9.386569
9.335328
9.314832
9.359668
9.423719
9.486489
9.510829
9.514671
9.499299
9.473679
9.431405
9.380164
9.345576
9.346858
9.395536
9.454464
9.500581
9.531325
9.562070
9.574880
9.556946
9.526201
9.482646
9.450621
9.432686
9.234128
9.149580
9.102182
9.079124
9.346858
9.399380
9.414752
9.453182
9.337891
9.266153
9.276402
9.200821
9.231565
9.321238
9.410909
9.416033
9.337891
9.331486
9.344296
9.271277
9.277682
9.409628
9.405785
9.358387
9.334047
9.449340
9.522358
9.588971
9.537730
9.565912
9.539011
9.492894
9.364792
9.237970
9.138051
9.036850
9.011230
9.016354
8.942055
8.790894
8.700002
8.642356
8.498881
8.361812
8.173034
8.050056
7.910424
7.970870
7.947812
7.867107
7.787684
7.781279
7.787684
7.706979
7.654458
7.646771
7.672392
7.645490
7.639085
7.573753
7.558381
7.486644
7.416187
7.341229
7.293831
7.247715
7.167010
7.158043
7.149076
7.131141
7.123455
7.095273
7.095273
7.047875
7.033783
7.017130
7.009444
7.017130
6.978700
6.958203
6.944112
6.954360
6.942831
6.936426
6.926178
6.887052
6.793537
6.796099
6.817876
6.816596
6.829406
6.815314
6.798661
6.782008
6.770479
6.751263
6.744858
6.721800
6.716676
6.701303
6.633410
6.624442
6.650063
6.660311
6.647501
6.659030
6.661592
6.630847
6.629566
6.628285
6.611632
6.598822
6.594979
6.570639
6.565515
6.559110
6.534770
6.542457
6.556548
6.574482
6.575763
6.605227
6.606508
6.627004
6.609070
6.584731
6.552705
6.529646
6.532208
6.523242
6.516836
6.507869
6.506588
6.488654
6.455347
6.456628
6.454066
6.445099
6.446380
6.443818
6.434851
6.416916
6.417348
6.426315
6.421191
6.425034
6.422472
6.417348
6.418629
6.413505
6.419910
6.417348
6.419910
6.409662
6.396852
6.389165
6.398133
6.421191
6.417348
6.404538
6.405819
6.405819
6.386603
6.354578
6.363545
6.366107
6.358421
6.355859
6.349454
6.343049
6.336644
6.340487
6.350735
6.332800
6.326396
6.311023
6.321271
6.298213
6.298213
6.313585
6.318709
6.325114
6.309742
6.319990
6.321271
6.334082
6.336644
6.340487
6.344330
6.341768
6.336644
6.308461
6.312304
6.312304
6.308461
6.281560
6.278998
6.268750
6.266188
6.255939
6.240567
6.239286
6.264906
6.277717
6.322552
6.353297
6.371231
6.373793
6.381479
6.396852
6.360983
6.340487
6.319990
6.299494
6.295651
6.313585
6.302056
6.296932
6.302056
6.323833
6.359702
6.441688
6.545450
6.647932
6.674834
6.659461
6.653056
6.603096
6.564666
6.504457
6.462184
6.417348
6.377636
6.332800
6.293089
6.225195
6.252096
6.234162
6.267468
6.234162
6.180359
6.135523
6.111184
6.106060
6.116308
6.113746
6.193169
6.168830
6.280279
6.419910
6.300775
6.216228
6.188045
6.138085
6.179078
6.176516
6.180359
6.217509
6.353297
6.372512
6.412224
6.418629
6.389165
6.390447
6.403257
6.358421
6.335362
6.299494
6.252096
6.254658
6.300775
6.243129
6.213665
6.234162
6.278998
6.302056
6.307180
6.276436
6.270030
6.276436
6.280279
6.305899
6.330238
6.371231
6.363545
6.343049
6.346892
6.362264
6.335362
6.314866
6.272593
6.295651
6.200855
6.157300
6.244410
6.231600
6.328958
6.234162
6.182921
6.111184
6.212385
6.223914
6.170111
6.104779
6.112465
6.129118
6.088125
6.089406
6.063786
6.056100
6.109903
6.109903
6.138085
6.156020
6.168830
6.181640
6.189326
6.186764
6.190607
6.182921
6.167549
6.164987
6.168830
6.172673
6.182921
6.181640
6.205979
6.239286
6.266188
6.290527
6.295651
6.303337
6.282841
6.258502
6.235443
6.207261
6.190607
6.170111
6.156020
6.136804
6.125275
6.107341
6.094531
6.074034
6.077877
6.079158
6.068910
6.056100
6.036884
6.084282
6.081720
6.025355
6.029198
5.970271
5.981801
5.990767
5.943370
5.953618
5.995892
6.002297
6.043290
6.034322
5.974114
5.974114
6.013826
5.995892
5.985643
5.977957
5.971552
5.965147
5.956180
5.943370
5.945932
5.967709
6.024074
6.100935
6.221352
6.272593
6.309742
6.318709
6.350735
6.398133
6.563385
6.699173
6.774754
6.834961
6.943848
6.957508
6.975442
6.764073
6.919077
6.648782
6.551424
6.432289
6.361833
6.334082
6.252096
6.245691
6.349454
6.349454
6.358421
6.378917
6.307180
6.267468
6.273874
6.200855
6.125275
6.091969
6.061224
6.015107
6.029198
6.053538
6.029198
6.002297
5.983081
5.984363
6.003578
6.013826
5.968990
5.966428
5.924154
6.009215
6.041241
6.023306
6.098887
6.027150
5.998967
5.986157
6.005372
6.027150
5.995124
6.080953
5.982314
5.966941
6.022026
6.215460
6.086077
5.913138
5.879832
5.870865
5.988719
5.949007
5.911858
5.940040
5.909296
5.890080
5.861897
6.022026
5.969503
5.993843
5.919544
6.005372
6.138598
6.362777
6.332033
6.366621
6.380712
6.348686
6.422986
6.439126
6.504457
6.499333
6.582600
6.670990
6.806779
6.979717
7.088172
7.153504
7.099701
6.974161
6.778165
6.760231
6.732048
6.536052
6.524522
6.374643
6.305899
6.253377
6.184202
6.132961
6.068910
5.995892
5.985643
6.024074
5.983081
5.939527
5.888286
5.838839
5.869584
5.837558
5.828591
5.841401
5.902890
6.014339
6.119383
6.209055
6.255172
6.280792
6.308975
6.328190
6.202650
6.089920
5.941321
5.932354
5.897766
5.906734
5.813219
5.640281
5.696646
5.769664
5.832434
5.728671
5.742763
5.737638
5.746605
5.731233
5.736357
5.717142
5.696646
5.719704
5.690240
5.692802
5.777350
5.829872
5.845244
5.846525
5.877270
5.906734
5.890080
5.822186
5.813219
5.855493
5.922106
6.007934
6.078391
6.038679
6.024588
6.083515
6.123226
5.963099
5.874708
5.893923
5.942602
6.087358
6.194963
6.119383
6.119383
6.115540
6.145004
6.248766
6.216741
6.316661
6.319223
6.396084
6.443482
6.391727
6.245691
6.198293
6.148334
6.129118
6.095811
6.042008
5.958742
5.894691
5.927230
6.006653
6.096325
6.050208
6.015620
6.015620
6.009215
5.952850
5.899047
5.904171
5.856773
5.809376
5.824748
5.774788
5.797846
5.827310
5.808095
5.795284
5.786317
5.806814
5.829872
5.861897
5.905452
5.909296
5.963099
5.972065
5.914420
5.992562
5.786317
5.704332
5.715861
5.694084
5.691522
5.722266
5.863179
6.136036
6.394803
6.467821
6.541607
6.614625
6.688925
6.676115
6.568509
6.485242
6.416067
6.364826
6.227757
6.125275
6.009983
5.931840
5.903658
5.886237
5.813219
5.774788
5.788879
5.842682
5.826029
5.826029
5.747887
5.690240
5.706894
5.714580
5.770945
5.783755
5.860617
5.988719
5.943883
5.913138
5.826029
5.837558
5.863179
5.805532
5.719704
5.610817
5.624908
5.627470
5.667182
5.613379
5.612098
5.569825
5.567263
5.583916
5.560857
5.580073
5.612098
5.642843
5.654372
5.626190
5.623628
5.664620
5.724828
5.700489
5.660777
5.653091
5.699208
5.708175
5.683836
5.654372
5.654372
5.662058
5.633876
5.563419
5.519865
5.457095
5.471186
5.501930
5.510898
5.486558
5.482715
5.558295
5.654372
5.763259
5.811938
5.843963
5.886237
5.900328
5.900328
5.861897
5.858055
5.970785
5.991281
5.974627
5.881113
5.815781
5.867022
5.877270
5.805532
5.699208
5.678711
5.649248
5.639000
5.640281
5.651810
5.685117
5.709456
5.731233
5.717142
5.781193
6.007934
5.823467
5.776069
5.719704
5.518584
5.528832
5.571105
5.591602
5.551890
5.626190
5.717142
5.786317
5.745325
5.662058
5.581354
5.587759
5.568543
5.550609
5.573668
5.574949
5.594164
5.567263
5.562139
5.623628
5.738919
5.824748
5.928511
5.965661
5.984876
6.107854
6.001529
5.852931
5.759416
5.694084
5.613379
5.656934
5.718423
5.904171
6.061737
6.177029
6.312818
6.384555
6.484475
6.462184
6.477556
6.339206
6.262344
6.141928
6.033041
5.935684
5.908782
5.861897
5.736357
5.673587
5.600569
5.637719
5.645405
5.664620
5.609536
5.587759
5.605693
5.606974
5.594164
5.569825
5.567263
5.558295
5.582635
5.594164
5.569825
5.587759
5.580073
5.586478
5.617222
5.696646
5.837558
6.015620
6.096325
6.157814
6.127069
6.118102
6.086077
6.065580
5.965661
5.884956
5.836277
5.764540
5.753011
5.679993
5.650529
5.624908
5.606974
5.557014
5.535237
5.609536
5.627470
5.601850
5.540361
5.605693
5.581354
5.532675
5.523708
5.504492
5.480153
5.462219
5.449409
5.475029
5.477591
5.510898
5.464781
5.485277
5.516022
5.526270
5.532675
5.551890
5.551890
5.539080
5.524989
5.509616
5.490401
5.464781
5.449409
5.453251
5.439160
5.435317
5.436598
5.422507
5.429243
5.412589
5.417713
5.407465
5.392093
5.378002
5.379282
5.388250
5.392093
5.388250
5.394655
5.410027
5.451020
5.483046
5.492013
5.522757
5.534286
5.545815
5.540691
5.504823
5.515071
5.489450
5.485608
5.472797
5.475359
5.499699
5.526600
5.550940
5.544535
5.539411
5.550940
5.554783
5.566312
5.552221
5.512509
5.506104
5.538129
5.631644
5.761027
5.909626
6.049257
6.247486
6.332033
6.329471
6.366621
6.310256
6.279511
6.225708
6.139880
6.064299
5.957974
5.884956
5.869584
5.933635
6.097606
6.275668
6.333314
6.348686
6.319223
6.435796
6.426315
6.440406
6.398133
6.336644
6.281560
6.191888
6.063786
5.993330
5.913906
5.852931
5.792722
5.782474
5.786317
5.763259
5.756854
5.728671
5.733795
5.715861
5.671025
5.697927
5.731233
5.774788
5.823467
5.792722
5.717142
5.756854
5.827310
5.782474
5.733795
5.718423
5.723547
5.719704
5.787598
5.814500
5.872146
5.937478
5.998967
5.992562
5.969503
5.929792
5.913138
5.891361
5.850368
5.817062
5.745325
5.722266
5.712018
5.687679
5.626190
5.598007
5.571105
5.560857
5.546766
5.554452
5.576230
5.582635
5.617222
5.665901
5.754292
5.877270
6.005372
6.004091
6.050208
6.114259
6.041241
6.089920
6.077109
5.940040
6.110416
6.066861
6.083515
6.068142
6.091201
6.070704
6.087358
6.034836
6.083515
6.166781
6.239799
6.150128
6.093763
5.984876
6.028430
6.019464
5.950288
5.902890
5.828591
5.786317
5.801690
5.815781
5.795284
5.778631
5.735076
5.710737
5.760697
5.824748
5.923387
6.000248
6.046365
6.096325
6.092482
6.083515
6.054051
6.023306
5.975909
5.940040
5.900328
5.869584
5.809376
5.783755
5.777350
5.729952
5.749167
5.859335
5.923387
6.004091
6.088639
6.091201
6.079671
5.997686
5.970785
5.923387
5.892642
5.838839
5.770945
5.755573
5.744043
5.705613
5.677431
5.639000
5.635157
5.624908
5.590321
5.572387
5.559577
5.580073
5.594164
5.619784
5.641562
5.632595
5.630033
5.635157
5.619784
5.619784
5.617222
5.610817
5.609536
5.612098
5.639000
5.674869
5.717142
5.688960
5.706894
5.708175
5.685117
5.674869
5.646686
5.658215
5.683836
5.703051
5.706894
5.731233
5.732514
5.727390
5.714580
5.695364
5.696646
5.731233
5.782474
5.852931
5.888799
6.030993
6.057894
6.073267
6.063018
6.100168
6.079671
6.071985
6.118102
6.141160
6.160376
6.189839
6.161657
6.111697
6.084795
6.052770
6.048927
5.988719
5.870865
5.774788
5.777350
5.795284
5.806814
5.834996
5.920825
6.013058
6.088639
6.128350
6.161657
6.184715
6.202650
6.188559
6.169343
6.184715
6.184715
6.121945
6.052770
6.034836
5.973347
5.929792
5.902890
5.928511
6.015620
6.107854
6.174467
6.239799
6.235956
6.262858
6.262858
6.219303
6.174467
6.138598
6.083515
6.024588
5.982314
5.875989
5.879832
5.864460
5.840120
5.827310
5.856773
5.931073
6.019464
6.101449
6.138598
6.179591
6.212898
6.215460
6.166781
6.145004
6.119383
6.022026
6.047646
5.995124
6.037398
6.055332
6.052770
5.966941
6.041241
6.055332
6.015620
5.977190
5.933635
6.084795
6.082233
5.947726
5.932354
5.863179
5.795284
5.817062
5.911858
6.028430
6.197526
6.180872
6.274387
6.143723
6.147566
6.157814
6.104011
6.084795
6.136036
6.105292
6.110416
6.112978
6.194963
6.211617
6.403770
6.446044
6.621031
6.582600
6.563385
6.509582
6.555698
6.540326
6.518549
6.590286
7.014305
6.776884
6.726924
6.853745
6.876803
6.826844
6.744858
6.580887
6.619318
6.784570
6.896019
6.980567
7.109950
7.079205
6.983129
6.915234
6.933168
7.049742
7.003625
7.059990
7.141975
7.098421
6.934450
7.455826
7.616649
7.469331
7.488546
7.320733
7.051718
7.334824
7.537225
7.424495
7.553879
7.550035
7.382222
7.492390
7.514167
7.411685
7.348915
7.307922
7.478298
7.485984
7.410404
7.420652
7.475736
7.368130
7.352758
7.181101
7.220813
7.236185
7.190068
7.165729
7.174696
7.199036
7.338667
7.240028
7.322014
7.345072
7.405280
7.402718
7.347634
7.259243
7.170853
7.118331
7.040189
6.995353
6.958203
6.876218
6.908829
6.829406
6.734610
6.700022
6.702584
6.771760
6.876803
6.894738
6.972880
7.131727
7.225242
7.199621
7.074081
7.127884
7.085610
7.108669
7.100983
7.051023
7.010030
6.986971
7.006187
7.051023
6.748701
6.642376
6.708990
6.710270
6.732048
6.680807
6.584731
6.573201
6.482249
6.574482
6.542457
6.619318
6.710270
6.738453
6.884490
7.001063
7.058709
7.112512
6.980567
6.907548
7.214993
7.179125
7.116355
7.104825
7.148380
7.045898
7.124041
7.081767
7.068957
7.103545
7.243176
7.165034
7.236771
7.204745
7.156066
7.134289
7.145818
7.195778
7.427643
7.355320
7.256681
7.165729
7.046594
7.188787
7.287426
7.243871
7.421933
7.538507
7.457802
7.320733
7.281021
7.183663
7.428339
7.325857
7.438587
7.400156
7.492390
7.478298
7.448835
7.462926
7.488546
7.542349
7.644831
7.651237
7.575656
7.555160
7.552598
7.598714
7.588466
7.539787
7.621773
7.724255
7.783182
7.880539
7.902317
7.689667
7.648674
7.656361
7.670452
7.674295
7.640988
7.607682
7.576937
7.655079
7.839547
7.952277
7.967027
8.025954
7.895290
7.854297
7.900414
7.868388
7.723633
7.671111
7.683921
7.681359
7.736443
7.710823
7.645490
7.605779
7.558381
7.636523
7.636523
7.646771
7.803056
7.804337
7.651896
7.632680
7.598093
7.642928
7.744129
7.926034
7.909381
7.992648
7.981118
8.019549
7.904257
7.931159
7.911943
7.913224
7.888885
7.790246
7.768468
7.800494
7.799213
7.794089
7.682640
7.695450
7.800494
7.747972
7.844049
7.598093
7.499454
7.526355
7.651896
7.768468
7.828677
7.804337
7.776155
7.847892
7.950374
7.773592
7.692888
7.665987
7.665987
7.617308
7.589125
7.626275
7.727476
7.908100
7.937563
7.904257
7.915786
8.046451
7.902976
8.024673
8.091287
8.159181
8.084881
8.016987
8.028516
8.059260
8.173271
8.111783
8.042607
8.031078
8.114345
8.107940
8.054136
7.945250
7.899133
7.817147
7.796651
7.769750
7.776155
7.814585
7.840206
7.801775
7.885042
7.859421
7.881198
7.767188
7.745410
7.744129
7.826115
7.762064
7.750534
7.682640
7.814585
7.863264
7.818429
7.801775
7.818429
7.943969
7.826115
7.864545
7.928596
7.949093
7.935001
7.973432
8.005458
8.114345
7.974713
7.940125
7.902976
7.999053
8.008019
8.059260
8.065666
8.198892
8.090005
7.986242
7.914505
7.877356
7.936283
7.920910
7.936283
7.908100
7.942688
7.874794
7.788965
7.795370
7.730038
7.721071
7.706979
7.695450
7.778717
7.803056
7.732600
7.665987
7.669830
7.591687
7.558381
7.631399
7.750534
7.783841
7.785122
7.822271
7.742848
7.932439
7.965746
8.038764
8.157899
8.192487
7.968308
7.809461
7.861983
7.877356
7.819709
7.692888
7.698012
7.724914
7.759501
7.779998
7.882480
7.805618
7.723633
7.696731
7.837644
7.950374
7.920910
7.894009
7.890166
7.978556
7.908100
8.022111
7.987524
7.927315
7.938845
7.927315
7.947812
7.841487
7.797932
7.690326
7.791527
7.779998
7.674954
7.686483
7.742848
7.660862
7.559662
7.598093
7.669830
7.785122
7.746691
7.732600
7.771030
7.887604
7.860702
7.792808
7.809461
7.800494
7.733881
7.756939
7.776155
7.932439
7.972151
7.879918
7.692888
7.785122
7.824833
7.835082
7.832520
7.833801
8.027235
8.024673
7.900414
7.886322
7.929877
8.020830
7.968308
7.986242
7.987524
7.961903
7.988804
8.075914
7.919629
7.896571
7.882480
7.765906
7.621151
7.581439
7.639085
7.540446
7.480238
7.523793
7.572472
7.704417
7.664706
7.722352
7.813304
7.954217
8.150213
7.891447
7.876074
7.810742
7.836363
7.726195
7.799213
7.854297
7.851735
7.812023
7.819709
7.890166
7.858140
7.822271
7.888885
7.937563
7.831239
7.794089
7.923472
7.704417
7.610903
7.581439
7.699293
7.665987
7.480238
7.322673
7.436025
7.355320
7.336105
7.524415
7.693510
7.770371
7.774215
7.895912
7.977897
7.983680
7.904257
8.023392
8.078476
7.982399
7.940125
7.897852
7.891447
7.869669
7.840206
7.897852
7.853016
7.827395
7.796651
7.867107
7.913224
7.850454
7.876074
7.837644
7.755658
7.681359
7.622432
7.680078
7.726195
7.704417
7.823553
7.791527
7.731319
7.695450
7.667268
7.710823
7.721071
7.717227
7.669830
7.558381
7.510983
7.508421
7.531479
7.508421
7.426435
7.407220
7.465488
7.465488
7.453959
7.444992
7.482141
7.443711
7.477017
7.573094
7.664047
7.753718
7.669171
7.661485
7.730660
7.795992
7.692229
7.681981
7.742189
7.811364
7.888226
7.961244
7.914505
8.072071
8.102816
8.196330
7.963184
7.929877
7.645490
7.614746
7.835082
7.960622
8.022111
7.836363
7.864545
7.814585
7.733881
7.458461
7.370070
7.261806
7.237466
7.151638
7.126017
7.111926
7.155481
7.201598
7.208003
7.195192
7.259243
7.337386
7.305360
7.223375
7.432181
7.398875
7.301517
7.182382
7.115769
7.104240
7.056842
6.977418
6.862126
6.730767
6.633410
6.561672
6.528366
6.443818
6.420760
6.410943
6.396852
6.362264
6.343049
6.382761
6.469870
6.563385
6.597972
6.605659
6.576195
6.546731
6.523673
6.515987
6.500615
6.450655
6.403257
6.373793
6.367388
6.353297
6.341768
6.390447
6.498053
6.647932
6.778596
7.002775
7.093297
7.047180
7.059990
6.948541
6.985691
7.018997
7.058709
7.010030
6.924201
6.935730
7.038212
7.081767
7.120198
7.098421
7.111231
7.029245
7.026683
7.080486
7.147099
7.177844
7.248300
7.302103
7.116355
6.860150
6.980567
7.010030
7.167596
7.512191
7.624335
7.620492
7.694791
7.667890
7.313046
7.288707
7.441149
7.386065
7.410404
7.377098
7.306642
7.213127
7.254119
7.375816
7.457802
7.500076
7.559003
7.584623
7.603838
7.612806
7.621773
7.656361
7.726817
7.693510
7.459083
7.387346
7.528258
7.491108
7.452678
7.444992
7.434743
7.542349
7.653799
7.594872
7.808802
8.026576
8.328276
7.585282
7.306019
7.512886
7.474455
7.523134
7.601276
7.871572
7.863886
7.643550
7.365568
7.295112
7.605120
7.797273
7.737065
7.788306
7.917689
7.923472
7.849173
7.841487
7.731319
7.883760
7.933721
8.049012
7.943969
8.143808
8.173271
8.282159
8.015706
8.157899
8.330837
8.335961
8.412823
8.471512
8.522753
8.657261
8.498414
8.444611
8.358783
8.271673
8.270391
8.335724
8.276797
8.326756
8.184564
8.157661
8.057742
8.325476
8.401056
8.544531
8.580400
8.500976
8.335724
8.527877
8.793049
8.750775
8.723874
8.640607
8.752056
8.818669
8.894250
8.871191
8.903217
9.028757
9.150922
9.038192
9.239312
9.295677
9.255965
9.325141
9.250841
9.302082
9.294396
9.375100
9.332827
9.346918
9.378943
9.308487
9.275181
9.330265
9.254684
9.141954
9.058688
8.925462
8.974140
8.979264
8.920338
8.948520
8.940834
9.035629
9.127863
9.070217
8.913933
8.715374
8.788392
8.875502
8.860129
8.899841
8.975422
8.933147
8.744838
8.641074
8.518096
8.682067
8.723060
8.692315
8.806327
8.866534
9.108647
9.289272
9.307206
9.375100
9.518575
9.872077
9.965591
9.822038
9.647819
9.729804
9.756705
9.818194
9.868155
9.918115
9.857906
9.836129
9.810509
9.788731
9.939892
10.041092
10.098739
10.139731
10.317793
10.449739
10.331324
10.099459
10.148138
10.219875
10.555503
10.538850
9.894495
10.304983
10.292172
10.280643
10.263990
10.508666
10.627240
10.795054
10.929562
10.952620
11.036144
11.013085
11.014366
11.061765
11.171932
11.302597
11.384583
11.407640
11.429418
11.407640
11.403797
11.466567
11.599579
11.717433
11.814791
11.869874
11.905743
11.912148
11.891652
11.886528
12.015911
12.153321
12.181503
12.216091
12.209686
12.212248
12.228901
12.245555
12.241712
12.234025
12.221215
12.292953
12.400558
12.488949
12.613891
12.671536
12.715091
12.724058
12.717653
12.720215
12.749679
12.774018
12.802200
12.752241
12.804763
12.835507
12.794515
12.767613
12.832945
12.825259
12.850880
12.836788
12.867533
12.917493
12.912369
12.907245
12.899558
12.962329
13.029473
13.087119
13.151171
13.189601
13.220345
13.290802
13.374068
13.315142
13.183196
13.225470
13.476550
13.436921
13.471509
13.561181
13.611140
13.643167
13.693126
13.676473
13.670068
13.644447
13.650852
13.593206
13.576553
13.576553
13.663663
13.823791
13.940363
14.000571
14.123844
14.034172
14.044420
14.032891
14.043139
14.091818
14.107190
14.121282
14.175085
14.290377
14.012395
13.439777
13.280637
13.152534
13.535561
13.443327
14.064623
14.346742
14.508151
14.062939
13.951489
13.852267
13.968840
14.204548
14.173803
14.127687
13.797183
14.087976
13.949625
13.875325
13.959873
13.997023
14.046983
14.222483
14.167398
14.309592
14.408231
14.397983
14.333932
14.394139
14.472282
14.513859
14.503611
14.545884
14.574067
14.574067
14.613778
14.613778
14.685515
14.676549
14.784155
14.770063
14.685515
14.846925
14.811056
14.844362
14.812337
14.839238
14.937878
14.923786
15.009615
14.994962
15.000086
14.966779
14.884793
14.988557
14.982151
15.135874
15.170462
15.201206
15.156370
15.121783
15.205050
15.340837
15.402327
15.489436
15.601767
15.635073
15.610734
15.613296
15.637635
15.743960
15.731150
15.810574
15.881029
15.911774
15.932270
15.951486
15.963015
16.011934
16.001686
15.960693
15.958132
15.992719
16.052927
16.092638
16.146442
16.193840
16.219460
16.237394
16.236113
16.263016
16.320662
16.392399
16.447481
16.467978
16.501444
16.537312
16.518097
16.550121
16.598801
16.698721
16.811451
16.858849
16.870377
16.869097
16.862692
16.874220
16.883188
16.872940
16.842196
16.843475
16.912651
17.006166
17.356592
17.289980
17.416801
17.544903
17.394489
17.384241
17.361181
17.436762
17.391926
17.422670
17.382959
17.457258
17.426514
17.537964
17.514904
17.505938
17.464945
17.438044
17.393208
17.493128
17.549492
17.614824
17.593046
17.632759
17.692966
17.714745
17.783920
17.850533
17.840284
17.721149
17.856937
17.826193
17.844128
17.847971
17.953014
18.000412
18.113163
18.143908
18.141346
18.063204
18.159279
18.178495
18.232298
18.035021
17.970970
18.184900
18.223331
18.216927
18.156717
18.196430
18.196430
18.143908
18.091385
18.041426
17.979937
18.211802
18.268167
18.288664
18.248951
18.263042
18.220768
18.265604
18.131098
18.229736
18.160561
18.128534
18.136221
18.101633
18.115725
18.106758
18.082418
18.150312
18.117006
18.160561
18.210520
18.260481
18.280977
18.114445
18.280977
18.255356
18.373211
18.132378
18.087542
18.042707
18.063204
18.027334
17.929977
18.043987
18.029896
18.028616
17.985060
17.963284
17.901794
18.141346
18.228455
18.268167
18.387302
18.364243
18.266886
18.298912
18.175934
18.070889
18.041426
18.110601
18.097790
18.113163
18.129816
18.186182
18.110601
18.005556
18.011963
17.873611
17.894108
18.033739
18.029896
18.005556
18.079857
18.063204
17.982498
18.050392
18.043987
17.991467
18.104197
18.183619
18.196430
18.015804
18.005556
18.031178
17.892826
17.577696
17.359922
16.855179
17.019684
16.764761
16.623848
16.486778
16.476530
16.561077
16.525209
16.358677
16.118418
16.008249
16.096640
16.035151
15.981348
15.842998
15.496964
15.532832
15.399606
15.138037
14.938197
14.781031
14.991118
14.996243
14.924505
14.845082
14.959093
14.957812
14.983433
15.003929
14.950126
15.037235
14.955250
15.126907
15.108973
15.211454
15.244761
15.274224
15.224265
15.231951
15.162776
15.220422
15.202487
15.173024
15.164057
15.181991
15.258852
15.257571
15.156370
15.112816
15.165338
15.188396
15.215298
15.140998
15.270382
15.206330
15.152528
15.161494
15.188396
15.085915
15.272943
15.071823
15.125626
15.112816
15.144841
15.251166
15.123064
15.149965
15.207611
15.248604
15.173024
15.207611
15.185834
15.170462
15.190958
15.294721
15.333152
15.362616
15.287035
15.383112
15.340837
15.328028
15.229389
15.321623
15.258852
15.094881
14.945002
14.740038
14.977027
14.973185
14.914257
14.732352
14.802809
14.925786
14.970622
14.987275
15.028268
14.946282
14.697764
14.488957
14.450527
14.469023
14.497206
14.515140
14.584315
14.672706
14.766220
14.684235
14.661177
14.679111
14.602249
14.531793
14.493362
14.531793
14.579191
14.594563
14.716260
14.709855
14.717542
14.677830
14.694483
14.713698
14.721384
14.691921
14.750848
14.846925
14.861016
14.704731
14.656053
14.636837
14.627870
14.653490
14.780312
14.773907
14.843081
14.785436
14.753410
14.771344
14.656053
14.648366
14.675267
14.686797
14.691921
14.738038
14.732914
14.704731
14.786716
14.877669
14.918662
14.880231
14.854610
14.876389
14.845644
14.905851
15.031392
15.135874
15.128188
14.971903
15.041079
15.076947
14.950126
14.947564
15.005210
15.005210
14.966779
15.101287
15.179429
15.299845
15.224265
15.170462
15.178148
15.151246
15.160213
15.142280
15.146122
15.033392
15.129469
15.210174
15.324184
15.342119
15.453568
15.335314
15.294321
15.199526
15.269981
15.145722
15.075266
15.027868
15.034273
14.997124
14.974066
15.027868
15.048365
15.095762
15.097044
15.116259
15.166219
15.199526
15.104730
15.090638
15.130350
15.132913
15.171343
15.244361
15.258452
15.191839
15.140598
15.218740
15.171343
15.108573
15.167500
15.200807
15.298164
15.227708
15.159814
15.225146
15.231551
15.131631
15.200807
15.193120
15.140598
15.154690
15.065018
15.103449
15.088077
15.113697
15.134193
15.123945
15.189278
15.304569
15.318661
15.207211
15.289197
15.204650
15.246923
15.198244
15.257172
14.977908
14.935635
14.778469
14.871984
14.929629
14.945002
14.939878
15.005210
15.096163
15.053888
15.071823
15.074385
15.006491
15.041079
15.038516
15.088476
15.039798
15.011615
14.978309
15.028268
15.103848
15.198645
15.313936
15.311375
15.283192
15.289597
15.248604
15.165338
15.097444
15.185834
15.299845
15.313936
15.371582
15.417699
15.388236
15.354929
15.389517
15.412575
15.392078
15.351086
15.369020
15.357491
15.369020
15.347243
15.308812
15.275506
15.271663
15.249886
15.348524
15.357491
15.329309
15.399765
15.403608
15.442039
15.462535
15.553087
15.564617
15.523624
15.426267
15.414738
15.391679
15.336595
15.334033
15.357091
15.408332
15.343000
15.385274
15.465979
15.555650
15.521062
15.595362
15.582551
15.554369
15.524905
15.550526
15.564617
15.587675
15.665817
15.690157
15.704248
15.658132
15.649164
15.627387
15.591518
15.526186
15.571022
15.569741
15.545402
15.546682
15.727306
15.740117
15.615858
15.631230
15.719621
15.711934
15.709373
15.732430
15.841318
15.849004
15.791358
15.849004
15.870781
15.840036
15.784953
15.834912
15.889997
15.884872
15.888716
15.939957
15.955329
15.940197
15.913296
15.809533
15.731391
15.676307
15.794161
15.823624
15.838996
15.808251
15.840278
15.850526
15.845402
15.860774
15.849244
15.850526
15.850526
15.915857
15.844120
15.787755
15.792879
15.919701
15.923544
15.906891
15.935073
15.928668
15.854368
15.815938
15.800566
15.846683
15.890237
15.990157
16.008091
16.047804
15.973504
15.946602
15.883832
15.887675
15.814657
15.918420
16.050365
16.152847
16.095201
16.087515
15.950445
16.061893
16.078548
16.106730
16.095201
16.206650
16.160534
16.123383
16.178467
16.255329
16.255329
16.264296
16.289917
16.291197
16.288635
16.269421
16.291197
16.316818
16.361654
16.414175
16.392399
16.380869
16.309132
16.248924
16.254047
16.224585
16.196402
16.304008
16.332190
16.330910
16.336033
16.336033
16.273264
16.278387
16.225864
16.268139
16.234833
16.269421
16.310413
16.314257
16.356529
16.366777
16.371902
16.360373
16.360373
16.373182
16.432110
16.360373
16.330910
16.350124
16.382151
16.448763
16.242519
16.260452
16.337315
16.174623
16.225864
16.210493
16.328346
16.157970
16.166939
16.214336
16.371902
16.323223
16.371902
16.379587
16.424423
16.380869
16.318098
16.273264
16.288635
16.170782
16.286074
16.241238
16.309132
16.271982
16.270700
16.295040
16.327066
16.261734
16.314257
16.382151
16.394960
16.339876
16.387274
16.411613
16.375746
16.292479
16.320662
16.291197
16.219460
16.256609
16.178467
16.191278
16.306570
16.411613
16.300165
16.304008
16.411613
16.501286
16.692316
16.707687
16.655165
16.665413
16.587271
16.434830
16.413052
16.411772
16.471979
16.349001
16.342596
16.352844
16.411772
16.334909
16.419458
16.395119
16.402803
16.389994
16.318256
16.392555
16.370779
16.331066
16.167095
15.944199
15.434194
15.058613
14.930511
14.850206
14.877108
15.107692
15.183272
15.226827
15.246042
15.162776
15.238356
15.281911
15.345962
15.348524
15.253728
14.923224
14.714417
14.500487
14.390319
14.052691
13.827230
13.505110
13.430811
13.390804
13.275513
13.316505
13.488162
13.538122
13.486881
13.524031
13.547090
13.635480
13.608579
13.545809
13.111542
12.825873
12.552933
12.486320
12.355656
12.120697
12.211649
12.534467
12.429423
12.375620
12.499880
12.429423
12.315413
12.437109
12.465292
12.529343
12.631824
12.790671
12.916212
13.031504
13.185759
13.272868
13.310018
13.325390
13.363820
13.409937
13.430433
13.490642
13.566305
13.547090
13.629075
13.579115
13.485600
13.617546
13.688002
13.652133
13.684159
13.778955
13.872469
13.996728
14.125125
14.118720
14.075165
14.125125
14.085413
14.034172
14.080289
14.105909
14.154589
14.236574
14.208391
14.264756
14.291657
14.273724
14.351866
14.339056
14.290377
14.285253
14.328808
14.263475
14.254508
14.339056
14.365957
14.319840
14.235292
14.222483
14.319840
14.382610
14.438975
14.506869
14.650928
14.650928
14.699607
14.544603
14.524107
14.521544
14.675267
14.718822
14.822585
14.895603
14.893042
14.884074
14.859735
14.854610
14.832833
14.902009
14.937878
14.960936
14.866859
14.581191
14.487677
14.364698
14.270465
14.353731
14.419064
14.534355
14.659895
14.656053
14.654771
14.712418
14.808494
14.602249
14.492082
14.370384
14.139800
13.828512
13.327047
13.595768
13.622670
14.041564
14.386454
14.503027
14.840520
14.793121
14.835396
14.638118
14.019384
14.143643
14.010417
13.831074
13.769001
14.327526
14.483811
14.557413
14.030913
14.047566
13.831074
13.523045
13.458993
13.963422
14.158431
14.199424
14.505589
14.652209
14.592001
14.919943
15.026268
15.594481
15.796482
15.517219
15.422423
15.319942
15.203368
15.209774
15.811854
16.033472
16.122103
16.113134
15.763416
15.332993
15.313537
15.631230
15.824664
16.115458
16.615295
17.116333
17.611517
17.516186
16.951254
16.581573
16.457315
16.511692
16.516815
16.473261
16.493757
15.835311
15.906891
15.609694
15.599445
15.938916
15.885113
16.142599
16.337315
16.182310
16.188715
15.334273
14.835715
14.330111
13.827230
13.327047
13.438203
13.978794
14.582450
14.328111
14.917381
15.096725
14.365979
13.829793
13.412876
12.930918
13.103773
13.327951
13.535478
13.713622
13.816104
13.980075
14.201986
13.986774
13.925285
13.912476
13.446183
12.827155
12.326192
12.057926
11.974660
11.824780
11.612729
12.596555
12.908525
12.356405
11.826061
11.324499
11.153783
12.083805
12.605522
12.390992
12.184748
13.107084
13.608496
14.062060
14.364676
13.850986
14.214796
14.157150
14.413355
14.552986
14.517702
14.709855
14.410096
14.469023
13.829793
13.327047
13.132038
13.398491
14.014663
14.257071
13.329610
13.981356
14.341618
13.997023
13.334734
13.048772
13.753334
13.481757
12.828436
13.331795
13.226751
13.422748
13.540602
13.125633
13.266545
13.506097
13.328034
13.784079
13.923710
13.971107
14.344180
14.514556
14.873826
14.945563
14.632994
15.022425
15.187115
14.992399
14.331392
13.832355
13.328329
13.211461
12.901454
13.028193
13.340762
13.377912
13.411218
13.603372
13.296009
12.938603
12.841163
12.660539
12.324911
11.824780
11.323218
11.880122
11.630323
11.767392
12.050498
12.529942
13.040471
13.229313
13.345886
13.412499
13.425309
13.459897
13.548370
13.609859
13.614984
13.620108
13.639323
13.652133
13.702093
13.880156
14.030035
14.337774
14.418479
14.413355
14.372362
14.345461
14.365957
14.358271
14.365957
14.377486
14.383891
14.409512
14.447943
14.486373
14.579191
14.631713
14.671425
14.731632
14.750848
14.770063
14.794403
14.821304
14.848206
14.375508
13.829793
13.471804
13.720322
14.080289
13.585814
13.535854
13.715198
13.329610
12.825873
12.477353
12.657977
12.623389
12.672069
12.732276
12.768145
12.697689
12.593925
12.509378
12.506816
12.491444
12.435079
12.179624
12.818854
13.081464
13.539320
13.699531
13.752053
13.768706
13.804575
13.828915
13.866064
13.876312
13.894246
13.939082
14.024911
14.236574
14.346742
14.381330
14.383891
14.412074
14.400545
14.356990
14.374925
14.363395
14.397983
14.444099
14.449224
14.490800
14.503611
14.488238
14.462618
14.483114
14.527950
14.579191
14.635556
14.673986
14.690639
14.691921
14.695764
14.682954
14.686797
14.656053
14.663738
14.652209
14.645804
14.644523
14.652209
14.650928
14.656053
14.666301
14.679111
14.679111
14.691921
14.721384
14.720103
14.699607
14.694483
14.709855
14.762377
14.749567
14.791841
14.857173
14.903290
14.925067
14.949407
14.951968
15.014177
15.053888
15.047483
15.123064
15.010334
14.965498
14.974465
15.112816
15.073104
14.860455
14.863016
14.779750
15.369020
15.367740
15.611134
16.115458
16.615295
17.116333
17.599987
18.118267
18.520529
18.111027
17.865070
17.359922
16.856459
16.334337
15.834030
15.381671
15.179029
15.158533
15.211055
15.262296
15.276387
15.299445
15.308413
15.335314
15.391679
15.492880
15.775986
15.983511
16.323223
16.342438
16.353968
16.325785
16.306570
16.309132
16.284792
16.260452
16.184872
16.111855
16.105450
16.149004
16.234833
16.263016
16.269421
16.310413
16.248924
16.510252
16.670538
16.648760
16.642355
16.644917
16.644917
16.644917
16.479666
15.835311
15.470062
15.521303
15.646843
15.920981
16.046522
16.227146
16.412895
16.492317
16.676943
16.692316
16.642355
16.643637
16.666695
16.660290
16.673100
16.692316
16.648760
16.646198
16.610331
16.587271
16.610331
16.598801
16.652603
16.676943
16.693596
16.721779
16.769176
16.765333
16.752523
16.752523
16.842196
16.860128
17.010010
17.250267
17.215681
17.158033
17.154192
17.123447
17.142662
17.099108
16.334337
16.256767
16.382307
16.384871
16.861410
16.953644
15.900643
16.516657
16.948521
17.111210
17.614079
18.128515
18.565363
19.048735
19.488342
19.624754
19.764385
19.764385
19.468470
19.929638
19.555578
19.310904
19.506899
18.865107
18.576254
18.362324
17.862509
17.362484
16.859022
16.333055
16.471979
16.994637
16.343304
15.835311
15.958132
16.043961
15.822343
15.771102
15.382953
16.069340
16.177187
16.470541
15.836593
16.097763
16.310413
16.301445
16.362934
16.397522
16.462854
16.502724
16.484789
16.457888
16.443796
16.469418
15.834030
15.332993
14.833153
14.332673
13.840041
13.523045
13.364198
13.311381
13.407458
13.343407
13.804575
14.109458
14.610632
15.112097
15.585513
15.993759
16.149004
16.196402
16.265577
16.325785
16.357811
16.444920
16.538435
16.756367
16.783268
16.790955
16.698721
16.483509
16.432268
16.436111
16.422020
16.410490
16.396399
16.397680
16.382307
16.383589
16.375902
16.386150
16.419458
16.483509
16.550121
16.588552
16.603924
16.600082
16.585991
16.568056
16.553965
16.534750
16.533468
16.530907
16.529625
16.527063
16.525782
16.530907
16.519377
16.519377
16.541155
16.539873
16.539873
16.548841
16.551403
16.548841
16.555246
16.552685
16.560369
16.568056
16.575743
16.587271
16.610331
16.628263
16.653885
16.651323
16.669256
16.673100
16.669256
16.683348
16.692316
16.737150
16.798639
16.862692
16.565495
15.835311
15.340678
14.833153
14.948845
15.585513
15.478788
15.536434
15.604328
15.667099
15.714497
15.699124
15.715777
15.783671
16.036034
16.280949
16.295040
16.165657
16.142599
16.136194
16.124664
16.137474
16.137474
16.125946
16.150286
16.168219
16.197683
16.209211
16.265577
16.275826
16.295040
16.297602
16.323223
16.336033
16.355249
16.370621
16.371902
16.382151
16.443640
16.369339
16.549963
16.090235
16.341314
16.455326
16.290073
16.304165
16.283669
16.254206
16.492476
15.834030
15.828748
15.732672
15.718580
15.718580
15.716019
15.708332
15.736515
15.755730
15.748044
15.739077
15.733953
15.735233
15.739077
15.335554
14.834434
15.007771
15.430510
15.434353
15.180710
14.372385
14.165421
14.284555
14.958374
15.511214
15.007372
14.834434
15.262695
15.425385
15.439477
15.463816
15.551806
15.588956
15.588956
15.508252
15.597923
15.412175
15.946362
15.960453
15.974785
15.399606
14.838277
14.583754
14.718261
14.847644
14.895041
14.859174
14.724666
14.920662
15.468940
15.796482
15.035555
15.058613
15.118821
15.097044
15.216179
15.414738
14.845963
14.410815
14.985275
15.512495
15.428828
14.835715
14.331392
13.831074
13.330891
13.106418
14.085119
14.528647
15.103129
14.965498
14.915538
15.157652
15.089757
14.939878
14.747725
14.720823
14.702888
14.682392
14.647804
14.636275
14.614498
14.570943
14.531232
14.499206
14.775907
15.064137
14.746444
14.924505
14.333954
14.567661
14.469023
14.037318
13.842603
14.239136
13.588376
13.373164
13.632918
13.910900
14.053093
14.005990
13.804870
13.777967
13.980370
14.125125
14.395421
14.421041
14.239136
14.172523
14.099504
