1530780728.000000
1.000000
52.00
52.00
71.00
80.50
74.80
71.67
69.43
67.50
66.33
65.40
67.91
70.00
71.85
73.50
74.93
76.25
77.35
78.33
79.16
79.85
80.43
80.95
81.43
81.88
82.32
82.73
83.07
83.39
83.69
83.97
84.23
84.47
84.73
84.97
85.29
85.58
85.89
86.21
86.54
86.90
87.27
87.64
88.02
88.41
88.78
89.13
89.47
89.79
90.08
90.34
90.57
90.77
90.94
91.07
91.18
91.25
91.30
91.33
91.36
91.37
92.03
92.70
92.42
92.17
92.82
93.42
93.98
94.58
95.13
95.67
95.60
95.48
95.28
95.17
95.07
94.92
94.77
94.63
94.53
94.53
94.47
94.40
94.33
94.27
94.18
94.08
94.03
94.00
93.97
93.93
93.90
93.93
93.90
93.87
94.00
94.37
94.73
95.10
95.45
95.78
96.12
96.43
96.73
97.02
97.28
97.57
97.85
98.10
98.40
98.70
98.63
98.18
97.75
97.33
96.92
96.57
96.25
95.95
95.63
95.35
95.07
94.78
94.50
94.08
93.70
93.35
93.13
92.92
92.85
93.13
93.40
93.73
94.17
94.53
94.90
95.30
95.77
96.32
96.85
97.30
97.82
98.33
98.85
99.37
99.88
100.40
100.88
101.38
101.88
102.37
102.83
103.22
103.63
104.12
104.38
104.42
104.38
104.33
104.28
104.27
104.30
104.27
104.18
104.07
103.92
103.47
103.00
102.57
102.08
101.60
101.48
101.75
102.02
102.30
102.58
102.85
103.10
103.37
103.68
104.00
104.32
104.62
104.90
105.25
105.53
105.78
105.95
106.10
106.08
105.73
105.40
105.03
104.63
104.20
103.75
103.32
102.83
102.27
101.70
101.13
100.58
100.03
99.48
98.92
98.35
97.82
97.28
96.72
96.15
95.60
95.07
94.55
94.05
93.47
92.88
92.30
91.75
91.20
90.65
90.05
89.38
88.77
88.20
87.67
87.18
86.98
86.78
86.58
86.40
86.25
86.12
86.02
85.93
85.87
85.83
85.82
85.82
85.82
85.80
85.77
85.72
85.68
85.65
85.65
85.73
85.78
85.80
85.83
85.87
85.90
85.93
86.00
86.08
86.22
86.37
86.52
86.67
86.82
86.95
87.07
87.17
87.27
87.35
87.43
87.50
87.53
87.55
87.57
87.58
87.62
87.65
87.68
87.72
87.77
87.80
87.83
87.87
87.90
87.93
87.98
88.03
88.12
88.20
88.28
88.35
88.42
88.50
88.58
88.65
88.70
88.75
88.78
88.80
88.78
88.75
88.68
88.62
88.55
88.47
88.40
88.35
88.32
88.28
88.27
88.25
88.23
88.22
88.20
88.20
88.20
88.20
88.20
88.18
88.13
88.08
88.03
88.00
87.97
87.97
87.98
88.02
88.05
88.08
88.13
88.18
88.25
88.35
88.45
88.58
88.72
88.88
89.08
89.28
89.50
89.75
89.98
90.23
90.48
90.73
90.95
91.15
91.32
91.45
91.58
91.72
91.83
91.95
92.07
92.18
92.30
92.42
92.53
92.65
92.78
92.92
93.05
93.18
93.30
93.43
93.57
93.72
93.85
94.02
94.17
94.28
94.42
94.57
94.70
94.87
95.03
95.20
95.33
95.47
95.60
95.67
95.72
95.75
95.78
95.80
95.82
95.83
95.85
95.87
95.88
95.92
95.93
95.93
95.92
95.87
95.78
95.67
95.52
95.38
95.23
95.07
94.92
94.77
94.60
94.42
94.25
94.10
93.97
93.87
93.77
93.68
93.63
93.58
93.55
93.55
93.52
93.48
93.45
93.42
93.38
93.35
93.32
93.33
93.32
93.28
93.22
93.13
93.05
92.92
92.78
92.68
92.58
92.48
92.40
92.30
92.22
92.15
92.07
91.98
91.87
91.80
91.73
91.65
91.57
91.45
91.33
91.22
91.12
91.03
90.95
90.87
90.80
90.73
90.68
90.63
90.58
90.53
90.48
90.40
90.33
90.25
90.18
90.13
90.12
90.10
90.13
90.15
90.18
90.23
90.30
90.37
90.42
90.47
90.50
90.52
90.57
90.65
90.75
90.88
91.03
91.18
91.35
91.43
91.53
91.60
91.68
91.77
91.83
91.93
92.02
92.10
92.18
92.27
92.33
92.33
92.30
92.27
92.25
92.23
92.23
92.23
92.25
92.28
92.28
92.32
92.35
92.40
92.42
92.45
92.48
92.52
92.57
92.63
92.72
92.82
92.95
93.07
93.18
93.30
93.38
93.48
93.55
93.60
93.62
93.65
93.63
93.63
93.62
93.57
93.50
93.43
93.37
93.30
93.23
93.17
93.08
92.97
92.83
92.65
92.47
92.28
92.10
91.93
91.80
91.73
91.68
91.67
91.68
91.70
91.72
91.75
91.77
91.78
91.82
91.92
92.03
92.13
92.25
92.37
92.47
92.57
92.63
92.68
92.73
92.78
92.82
92.83
92.85
92.85
92.83
92.80
92.75
92.67
92.57
92.45
92.32
92.20
92.10
92.02
91.95
91.90
91.85
91.82
91.78
91.75
91.72
91.70
91.68
91.70
91.73
91.77
91.80
91.83
91.87
91.88
91.92
91.95
91.98
92.03
92.07
92.10
92.12
92.13
92.13
92.08
92.02
91.92
91.82
91.73
91.67
91.60
91.55
91.48
91.40
91.28
91.17
91.05
90.93
90.78
90.65
90.50
90.37
90.25
90.15
90.02
89.88
89.80
89.72
89.63
89.58
89.55
89.53
89.55
89.55
89.55
89.55
89.57
89.53
89.50
89.47
89.42
89.38
89.35
89.33
89.32
89.30
89.28
89.25
89.20
89.13
89.07
89.00
88.95
88.88
88.83
88.78
88.73
88.68
88.65
88.63
88.63
88.65
88.70
88.77
88.87
88.98
89.10
89.18
89.25
89.30
89.33
89.38
89.45
89.53
89.63
89.73
89.83
89.92
90.02
90.12
90.23
90.35
90.47
90.58
90.73
90.90
91.02
91.15
91.28
91.38
91.48
91.57
91.62
91.68
91.75
91.82
91.87
91.97
92.07
92.18
92.32
92.45
92.57
92.70
92.82
92.93
93.03
93.15
93.25
93.35
93.47
93.58
93.70
93.83
93.98
94.13
94.30
94.48
94.65
94.82
94.95
95.07
95.13
95.18
95.20
95.18
95.17
95.17
95.17
95.18
95.20
95.20
95.20
95.18
95.17
95.15
95.13
95.12
95.12
95.13
95.15
95.18
95.22
95.25
95.28
95.30
95.30
95.32
95.32
95.35
95.38
95.45
95.53
95.62
95.70
95.75
95.80
95.83
95.87
95.90
95.95
96.02
96.12
96.23
96.38
96.53
96.70
96.90
97.07
97.25
97.42
97.62
97.80
98.13
98.45
98.77
99.07
99.35
99.65
99.93
100.25
100.60
100.97
101.33
101.73
102.15
102.57
102.97
103.35
103.72
104.07
104.40
104.68
104.97
105.25
105.55
105.87
106.23
106.62
106.98
107.40
107.83
108.25
108.68
109.13
109.60
110.08
110.53
111.00
111.43
111.85
112.22
112.57
112.92
113.28
113.68
114.12
114.53
114.95
115.37
115.75
116.15
116.50
116.80
117.08
117.37
117.67
117.92
118.18
118.43
118.68
118.90
119.10
119.13
119.20
119.25
119.30
119.37
119.42
119.47
119.52
119.53
119.58
119.63
119.68
119.73
119.78
119.87
119.95
120.05
120.18
120.33
120.53
120.73
120.95
121.17
121.35
121.52
121.65
121.75
121.80
121.80
121.85
121.88
121.93
121.95
121.97
121.98
122.02
122.05
122.10
122.17
122.25
122.33
122.42
122.47
122.47
122.50
122.53
122.55
122.58
122.58
122.62
122.65
122.67
122.67
122.67
122.68
122.72
122.78
122.87
122.92
123.03
123.15
123.22
123.32
123.42
123.48
123.55
123.88
124.18
124.55
124.93
125.32
125.68
124.88
124.12
123.33
122.55
121.98
121.42
121.47
121.53
121.62
121.67
121.67
121.70
121.72
121.75
121.83
121.92
122.03
122.12
122.18
122.23
122.23
122.22
122.22
122.20
122.20
122.22
122.25
122.30
122.37
121.68
121.07
120.43
119.78
119.15
118.48
117.80
117.12
116.45
115.58
114.77
113.98
113.15
112.35
111.57
110.77
109.97
109.20
108.40
107.62
106.85
106.08
105.28
104.53
103.72
102.65
101.58
100.45
99.27
98.08
96.92
96.90
96.85
96.82
96.82
96.62
96.43
95.65
94.87
94.10
93.35
92.60
91.87
91.13
90.42
89.67
88.92
88.18
87.45
86.75
86.03
85.42
84.87
84.35
83.83
83.33
82.82
82.30
81.77
81.20
81.38
81.53
81.72
81.92
82.10
82.33
82.57
82.82
83.03
83.48
83.90
84.37
84.90
85.38
85.87
86.35
86.82
87.28
87.73
88.17
88.62
89.05
89.53
89.98
90.50
91.00
91.52
92.02
92.53
93.07
93.57
94.07
94.55
94.98
95.38
95.80
96.07
96.33
96.58
96.83
97.10
97.42
97.72
98.00
98.27
98.55
98.83
99.07
99.27
99.48
99.72
99.98
100.22
100.40
100.57
100.57
100.55
100.50
100.45
100.45
100.40
100.33
100.32
100.35
100.40
100.43
100.47
100.47
100.38
100.30
100.27
100.15
99.98
99.82
99.65
99.47
99.32
99.20
99.08
98.98
98.88
98.78
98.65
98.52
98.42
98.32
98.20
98.13
98.07
98.00
97.92
97.87
97.85
97.88
97.85
97.78
97.87
97.92
97.98
98.05
98.20
98.32
98.42
98.53
98.62
98.63
98.63
98.50
98.42
98.33
98.25
98.20
98.08
98.03
97.98
98.10
98.23
98.38
98.53
98.63
98.80
99.05
99.15
99.20
99.23
99.23
99.23
99.27
99.45
99.57
99.72
99.85
99.98
100.13
100.23
100.38
100.52
100.57
100.68
100.78
100.88
100.98
101.10
101.22
101.35
101.48
101.72
101.87
102.03
102.23
102.48
102.73
102.97
103.20
103.63
104.02
104.37
104.73
105.07
105.38
105.58
105.83
106.08
106.33
106.63
107.00
107.38
107.92
108.45
108.93
109.40
109.78
110.22
110.58
110.97
111.33
111.68
112.03
112.38
112.75
113.08
113.35
113.72
114.05
114.38
114.75
115.12
115.47
115.75
116.15
116.47
116.80
117.13
117.45
117.80
118.08
118.27
118.55
118.77
119.00
119.18
119.37
119.53
119.57
119.55
119.50
119.35
119.25
119.08
118.87
118.60
118.30
118.00
117.72
117.33
117.00
116.67
116.37
116.08
115.82
115.58
115.32
115.03
114.75
114.45
114.15
113.80
113.40
113.00
112.62
112.23
111.87
111.52
111.20
110.90
110.62
110.35
110.08
109.82
109.55
109.30
109.05
108.93
108.87
108.78
108.70
108.60
108.48
108.35
108.13
107.85
107.62
107.38
107.15
106.93
106.72
106.55
106.33
106.10
105.83
105.58
105.35
105.13
105.07
105.00
105.00
105.07
105.12
105.20
105.25
105.33
105.43
105.55
105.62
105.67
105.75
105.87
105.95
106.05
106.17
106.27
106.35
106.40
106.52
106.50
106.50
106.55
106.65
106.73
106.80
106.82
106.78
106.75
106.70
106.63
106.57
106.57
106.53
106.47
106.40
106.33
106.28
106.10
105.90
105.77
105.63
105.52
105.42
105.38
105.42
105.50
105.57
105.63
105.70
105.73
105.77
105.82
105.85
105.87
105.83
105.83
105.83
105.80
105.77
105.77
105.68
105.60
105.57
105.57
105.60
105.60
105.63
105.62
105.63
105.72
105.73
105.70
105.67
105.65
105.62
105.55
105.45
105.48
105.47
105.63
105.77
105.87
105.97
106.08
106.13
106.35
106.62
106.97
107.30
107.62
107.92
108.17
108.45
108.83
109.22
109.58
109.98
110.35
110.70
111.00
111.32
111.65
111.98
112.27
112.38
112.52
112.63
112.82
113.00
113.22
113.45
113.70
113.98
114.32
114.75
115.18
115.60
116.05
116.52
116.93
117.40
117.80
118.15
118.47
118.80
119.13
119.45
119.80
120.17
120.47
120.82
121.18
121.65
122.08
122.50
122.95
123.45
123.88
124.33
124.70
125.12
125.53
125.95
126.37
126.83
127.17
127.50
127.72
127.97
128.20
128.45
128.67
128.87
129.00
129.08
129.17
129.27
129.42
129.57
129.72
129.87
130.05
130.20
130.35
130.63
130.93
131.35
131.68
132.02
132.35
132.67
133.12
133.53
133.92
134.27
134.57
134.85
135.12
135.33
135.55
135.77
136.02
136.28
136.55
136.80
137.10
137.37
137.63
137.87
138.12
138.35
138.58
138.70
138.83
138.98
139.17
139.37
139.55
139.70
139.90
140.07
140.25
140.42
140.57
140.75
140.95
141.10
141.27
141.40
141.57
141.72
141.87
142.03
142.20
142.42
142.65
142.78
142.90
143.00
143.10
143.18
143.22
143.27
143.30
143.30
143.30
143.17
143.05
142.97
142.88
142.82
142.62
142.42
142.22
142.02
141.85
141.70
141.57
141.45
141.35
141.25
141.13
141.02
140.90
140.77
140.62
140.47
140.32
140.15
139.97
139.80
139.63
139.48
139.32
139.15
138.97
138.78
138.58
138.40
138.22
138.03
137.85
137.68
137.50
137.32
137.12
136.97
136.80
136.65
136.52
136.38
136.27
136.17
136.07
135.97
135.83
135.73
135.63
135.55
135.48
135.43
135.40
135.40
135.40
135.43
135.42
135.38
135.35
135.28
135.22
135.13
135.07
134.98
134.97
134.88
134.88
134.73
134.58
133.80
133.00
132.17
131.43
130.70
129.93
129.18
128.42
127.68
126.83
125.98
125.10
124.15
123.23
122.32
121.35
120.37
119.33
118.28
117.25
116.20
115.03
113.85
112.77
111.70
110.67
109.67
108.67
107.62
106.60
105.62
104.57
103.55
102.50
101.43
100.45
99.50
98.52
97.57
96.67
95.78
94.88
93.95
92.97
92.03
91.12
90.23
89.30
88.37
87.42
86.48
85.42
84.37
83.30
82.30
81.25
80.43
79.53
78.78
77.98
77.83
77.68
77.55
77.32
77.07
76.82
76.53
76.27
75.90
75.73
75.58
75.47
75.37
75.25
75.12
75.03
75.13
75.25
75.38
75.50
75.63
75.87
76.08
76.17
76.28
76.37
76.43
76.57
76.72
76.90
77.03
77.18
77.18
77.17
77.12
77.02
76.88
76.80
76.63
76.42
76.20
76.00
75.78
75.73
75.60
75.67
75.68
75.77
75.82
75.88
75.93
76.12
76.37
76.57
76.75
76.80
76.67
76.55
76.45
76.38
76.30
76.25
76.25
76.28
76.30
76.38
76.65
76.93
77.32
77.63
77.95
78.25
78.50
78.75
78.95
79.12
79.08
79.15
79.22
79.28
79.33
79.42
79.60
79.80
79.93
80.03
80.12
80.13
80.18
80.20
80.20
80.27
80.43
80.65
80.90
81.13
81.37
81.50
81.70
81.88
82.05
82.17
82.22
82.12
82.08
81.78
81.48
81.20
80.98
80.77
80.53
80.28
80.00
79.75
79.48
79.38
79.28
79.15
79.00
78.87
79.02
79.15
79.22
79.30
79.40
79.45
79.35
79.23
79.07
78.93
78.92
78.92
79.07
79.13
79.28
79.57
79.85
80.05
80.22
80.35
80.60
80.80
81.02
81.27
81.55
81.90
82.28
82.70
83.07
83.47
83.88
84.30
84.75
85.22
85.67
86.13
86.62
87.22
87.77
88.30
88.80
89.35
89.95
90.57
91.15
91.78
92.42
93.05
93.68
94.28
94.95
95.65
96.28
96.93
97.60
98.25
99.13
100.03
101.15
102.27
103.12
103.97
104.87
105.70
106.55
107.42
108.27
109.13
110.05
110.90
110.95
111.00
111.00
111.03
111.03
110.95
110.92
110.88
110.88
110.85
110.72
110.62
110.47
110.30
110.17
110.22
110.27
110.32
110.38
110.42
110.45
110.25
110.00
109.72
109.62
109.43
109.22
108.85
108.47
107.80
107.15
106.48
105.82
105.13
104.43
104.47
104.57
104.60
104.52
104.45
104.30
104.20
104.08
104.33
104.58
104.60
104.43
104.18
103.78
103.37
102.93
102.48
102.02
101.55
101.07
100.57
100.07
99.52
98.97
98.42
98.62
98.82
99.02
99.27
99.55
99.83
100.07
100.28
100.45
100.72
100.97
101.22
101.43
101.67
101.87
101.88
101.88
101.88
101.90
101.90
101.95
102.18
102.45
102.70
102.78
102.92
103.08
103.38
103.73
104.33
105.00
105.25
105.53
105.83
106.15
105.75
105.00
104.30
103.67
103.12
102.63
102.07
101.48
100.52
99.73
99.15
98.58
98.10
97.55
96.97
96.22
95.55
94.83
94.10
93.37
92.82
92.32
91.88
91.40
90.97
90.47
89.97
89.48
89.05
88.62
88.20
87.75
87.40
87.03
86.68
86.28
85.83
85.30
84.78
84.12
83.45
82.78
82.52
82.38
82.23
82.18
82.17
82.17
82.20
82.23
82.28
82.33
82.38
82.42
82.55
82.60
83.08
83.57
84.08
84.53
85.00
85.75
86.52
87.33
88.13
88.87
89.63
90.42
91.22
91.82
92.43
93.00
93.58
94.20
94.85
95.65
96.40
97.20
98.02
98.85
99.50
100.13
100.73
100.92
101.07
101.22
101.33
101.43
101.45
101.40
101.33
101.25
101.10
101.00
100.85
100.75
100.65
100.65
100.62
100.67
100.70
100.70
100.32
99.82
99.28
98.62
98.07
97.47
96.90
96.35
95.73
95.08
94.48
93.88
93.30
92.78
92.23
91.73
91.28
90.87
90.45
90.00
89.62
89.38
89.30
89.23
89.13
89.07
88.97
88.85
88.72
88.60
88.43
88.20
87.98
87.80
87.63
87.48
87.33
87.18
87.03
86.88
86.72
86.93
87.13
87.33
87.58
87.80
88.03
88.33
88.58
88.92
89.25
89.22
89.22
89.20
89.27
89.33
89.67
90.08
90.52
90.92
91.38
91.87
92.40
92.93
93.37
93.82
94.28
94.72
95.20
95.70
96.15
96.62
97.05
97.45
97.85
98.20
98.62
99.10
99.57
100.07
100.50
100.73
100.72
100.73
100.75
100.80
100.90
101.03
101.20
101.37
101.58
101.85
102.12
102.35
102.53
102.70
102.88
103.05
103.23
103.40
103.58
103.85
104.13
104.37
104.58
104.83
105.13
105.27
105.40
105.52
105.62
106.08
106.52
107.25
107.90
108.25
108.27
108.37
108.43
108.55
108.53
108.28
108.02
107.77
107.48
107.22
106.90
106.60
106.33
106.08
105.83
105.58
105.30
105.02
104.70
104.32
103.77
103.22
102.68
102.15
101.65
101.20
100.73
100.32
99.90
99.47
99.00
98.48
97.97
97.50
97.02
96.50
96.02
95.62
95.25
94.87
94.52
93.95
93.35
92.57
91.88
91.17
90.50
89.87
89.25
88.65
87.95
87.42
86.93
86.40
85.92
85.38
84.92
84.17
83.45
83.02
82.72
82.30
81.90
81.48
81.10
80.93
80.80
80.55
80.28
80.02
79.95
79.70
79.40
79.32
79.22
79.15
79.05
78.98
78.97
79.07
79.17
79.27
79.33
79.40
79.43
79.43
79.43
79.42
79.38
79.32
79.25
79.22
79.15
79.02
78.87
78.63
78.37
78.08
77.78
77.50
77.20
77.10
77.07
77.23
77.32
78.58
79.80
81.03
82.23
83.40
84.63
85.83
87.03
88.30
89.52
90.80
92.03
93.27
94.50
95.72
96.88
98.03
99.18
100.35
101.50
102.62
103.73
104.90
106.07
107.20
108.12
109.22
110.32
111.25
112.23
113.20
114.20
115.22
115.78
116.12
116.48
116.62
116.68
116.77
116.83
116.92
117.07
117.20
117.37
117.57
117.78
118.07
118.38
118.68
119.05
119.47
119.87
120.22
120.48
120.75
120.97
121.12
121.17
121.22
121.23
120.08
118.93
117.78
116.62
115.68
114.75
113.83
112.90
111.95
110.97
110.00
109.05
108.30
107.83
107.40
106.95
106.55
106.13
105.70
105.23
104.87
104.53
104.27
104.07
103.90
103.85
103.73
103.62
103.43
103.23
102.95
102.67
102.32
102.40
102.70
103.00
103.13
103.35
103.08
102.83
102.60
102.38
102.17
101.95
101.83
101.67
101.45
101.30
101.15
100.93
100.77
100.55
100.47
100.48
100.50
100.62
100.83
101.07
101.30
101.35
101.38
101.43
101.42
101.45
101.23
101.00
100.78
100.53
100.28
100.05
99.77
99.45
98.92
98.07
97.25
96.47
95.63
94.83
94.05
93.35
92.57
91.73
90.90
90.00
89.13
88.13
87.13
86.15
85.18
84.20
83.27
82.35
81.43
80.58
79.67
78.75
78.22
77.70
77.63
77.52
77.77
78.00
78.22
78.43
78.55
78.75
78.97
79.08
79.25
79.43
79.60
79.83
79.92
79.95
80.00
79.98
79.97
80.00
80.07
80.32
80.55
80.78
81.10
81.40
81.73
82.08
82.42
82.77
83.12
83.52
83.90
84.32
84.75
85.22
85.63
86.05
86.48
86.87
87.20
87.57
87.93
88.32
88.70
89.12
89.40
89.65
89.97
90.37
90.77
91.17
91.65
92.10
92.57
93.00
93.55
94.00
94.40
94.78
95.18
95.62
95.73
95.85
95.98
96.13
96.27
96.43
96.55
96.67
96.78
96.68
96.62
96.58
96.52
96.48
96.45
96.38
96.33
96.30
96.17
96.07
96.02
95.93
95.78
95.68
95.57
95.35
95.15
94.98
94.88
94.78
94.70
94.62
94.60
94.58
94.53
94.47
94.37
94.32
94.32
94.22
94.08
93.95
93.75
93.57
93.38
93.30
93.18
93.00
92.80
92.58
92.28
91.98
91.63
91.20
90.73
90.25
89.77
89.40
89.05
88.75
88.42
88.10
87.75
87.40
87.05
86.63
86.30
85.90
85.43
85.17
84.90
84.58
85.25
86.40
87.53
88.70
89.85
90.98
92.17
93.32
94.45
95.60
96.80
97.95
99.12
100.38
101.65
102.90
104.08
105.23
106.40
107.55
108.62
109.68
110.75
111.82
112.90
113.97
115.05
116.15
117.28
118.42
119.60
120.80
122.13
123.45
124.82
126.18
127.67
129.17
130.70
132.25
133.87
135.57
137.23
139.00
140.77
142.40
144.00
145.57
147.12
148.65
150.18
151.72
153.27
154.82
156.30
157.87
159.47
161.07
162.63
164.22
164.85
165.00
165.15
165.28
165.42
165.55
165.68
165.82
165.95
166.08
166.23
166.38
166.53
166.67
166.78
166.90
167.02
167.13
167.23
167.33
167.47
167.60
167.77
167.93
168.12
168.32
168.50
168.72
168.93
169.15
169.38
169.57
169.73
169.88
170.02
170.13
170.15
170.17
170.17
170.18
170.20
170.20
170.20
170.20
170.23
170.28
170.35
170.43
170.52
170.62
170.73
170.85
170.98
171.12
171.25
171.38
171.53
171.70
171.88
172.07
172.27
172.47
172.67
172.88
173.10
173.32
173.53
173.77
174.00
174.23
174.45
174.67
174.87
175.07
175.27
175.47
175.67
175.87
176.07
176.27
176.45
176.63
176.80
176.97
177.12
177.25
177.37
177.45
177.53
177.60
177.63
177.67
177.68
177.68
177.67
177.65
177.58
177.50
177.42
177.33
177.22
177.10
176.98
176.87
176.72
176.57
176.40
176.20
175.98
175.75
175.48
175.18
174.85
174.48
174.10
173.68
173.25
172.80
172.35
171.90
171.45
171.00
170.58
170.17
169.77
169.37
168.97
168.58
168.18
167.80
167.42
167.03
166.63
166.23
165.82
165.37
164.90
164.43
163.97
163.50
163.03
162.57
162.12
161.67
161.25
160.83
160.45
160.10
159.73
159.38
159.05
158.72
158.40
158.08
157.78
157.47
157.18
156.92
156.65
156.38
156.13
155.90
155.67
155.43
155.23
155.05
154.90
154.80
154.73
154.68
154.68
154.72
154.77
154.85
154.95
155.08
155.22
155.35
155.47
155.58
155.68
155.77
155.80
155.83
155.85
155.85
155.87
155.83
155.80
155.75
155.70
155.65
155.60
155.53
155.47
155.42
155.38
155.35
155.33
155.27
155.20
155.13
155.03
154.92
154.80
154.63
154.40
154.15
153.92
153.65
153.38
153.07
152.77
152.48
152.20
151.92
151.65
151.38
151.12
150.85
150.57
150.25
149.93
149.62
149.28
148.93
148.57
148.18
147.78
147.38
146.97
146.53
146.10
145.68
145.27
144.88
144.52
144.18
143.88
143.60
143.33
143.10
142.90
142.72
142.53
142.38
142.23
142.10
142.00
141.88
141.75
141.60
141.48
141.38
141.30
141.23
141.18
141.13
141.10
141.13
141.15
141.18
141.27
141.37
141.45
141.58
141.78
141.98
142.18
142.40
142.60
142.87
143.08
143.30
143.52
143.75
143.98
144.22
144.45
144.70
144.97
145.25
145.52
145.80
146.08
146.37
146.65
146.90
147.17
147.40
147.65
147.88
148.12
148.35
148.55
148.75
148.92
149.07
149.20
149.32
149.43
149.53
149.62
149.68
149.75
149.80
149.83
149.92
149.97
150.05
150.15
150.28
150.40
150.50
150.60
150.68
150.75
150.82
150.87
150.90
150.95
151.00
151.03
151.07
151.10
151.13
151.17
151.18
151.22
151.25
151.28
151.32
151.35
151.40
151.45
151.48
151.52
151.55
151.57
151.60
151.58
151.60
151.62
151.62
151.63
151.63
151.65
151.68
151.70
151.75
151.77
151.82
151.87
151.90
151.97
151.97
152.02
152.05
152.07
152.07
152.07
152.07
152.07
152.07
152.07
152.07
152.07
152.03
152.02
151.97
151.90
151.82
151.75
151.67
151.60
151.53
151.47
151.38
151.30
151.22
151.12
151.00
150.88
150.75
150.63
150.50
150.37
150.23
150.08
149.93
149.80
149.63
149.50
149.33
149.17
149.00
148.85
148.70
148.58
148.43
148.35
148.23
148.15
148.07
147.98
147.92
147.85
147.78
147.73
147.67
147.62
147.55
147.48
147.42
147.35
147.32
147.27
147.22
147.18
147.13
147.08
146.98
146.88
146.78
146.67
146.53
146.38
146.23
146.07
145.95
145.85
145.73
145.60
145.50
145.35
145.20
145.05
144.90
144.75
144.60
144.47
144.33
144.18
144.07
143.90
143.75
143.58
143.45
143.33
143.20
143.07
142.93
142.78
142.63
142.48
142.35
142.18
142.02
141.85
141.68
141.50
141.32
141.12
140.90
140.67
140.43
140.20
139.97
139.72
139.45
139.17
138.87
138.55
138.20
137.82
137.45
137.07
136.70
136.33
136.00
135.65
135.35
135.05
134.75
134.47
134.20
133.95
133.70
133.48
133.23
132.97
132.70
132.42
132.12
131.83
131.57
131.28
131.00
130.73
130.48
130.25
130.03
129.85
129.67
129.53
129.42
129.32
129.22
129.10
129.02
128.92
128.83
128.73
128.63
128.52
128.38
128.25
128.12
127.97
127.83
127.70
127.55
127.40
127.25
127.12
126.98
126.83
126.70
126.57
126.48
126.43
126.40
126.38
126.38
126.43
126.47
126.50
126.53
126.57
126.60
126.65
126.68
126.72
126.75
126.78
126.82
126.85
126.90
126.93
126.98
127.07
127.17
127.30
127.45
127.63
127.82
128.02
128.27
128.47
128.63
128.77
128.88
128.97
129.03
129.10
129.12
129.12
129.10
129.08
129.05
129.03
129.03
129.05
129.10
129.17
129.23
129.30
129.33
129.37
129.33
129.28
129.25
129.20
129.18
129.20
129.25
129.30
129.40
129.50
129.57
129.62
129.67
129.70
129.77
129.82
129.88
129.95
130.02
130.07
130.15
130.18
130.22
130.25
130.28
130.33
130.38
130.45
130.52
130.57
130.58
130.58
130.57
130.53
130.50
130.45
130.40
130.37
130.30
130.30
130.33
130.38
130.42
130.43
130.42
130.38
130.38
130.37
130.35
130.37
130.37
130.35
130.33
130.33
130.28
130.25
130.23
130.22
130.22
130.22
130.27
130.33
130.38
130.47
130.52
130.53
130.50
130.47
130.37
130.27
130.18
130.07
129.93
129.82
129.67
129.52
129.33
129.17
129.02
128.90
128.75
128.67
128.62
128.57
128.53
128.48
128.43
128.37
128.27
128.18
128.10
128.02
127.93
127.83
127.72
127.60
127.47
127.32
127.15
126.95
126.73
126.52
126.32
126.15
126.00
125.87
125.75
125.65
125.55
125.42
125.28
125.18
125.05
124.90
124.80
124.68
124.57
124.45
124.35
124.25
124.13
124.02
123.90
123.77
123.65
123.52
123.38
123.25
123.12
122.97
122.82
122.70
122.60
122.50
122.42
122.33
122.27
122.22
122.13
122.03
121.93
121.82
121.67
121.52
121.35
121.18
121.03
120.90
120.77
120.63
120.52
120.38
120.27
120.15
120.07
119.97
119.88
119.80
119.75
119.72
119.68
119.67
119.68
119.68
119.73
119.77
119.77
119.77
119.75
119.72
119.70
119.67
119.65
119.63
119.60
119.58
119.57
119.57
119.55
119.53
119.53
119.53
119.55
119.55
119.55
119.55
119.57
119.60
119.62
119.65
119.68
119.70
119.75
119.78
119.80
119.82
119.80
119.77
119.73
119.68
119.63
119.55
119.52
119.50
119.48
119.47
119.43
119.38
119.35
119.32
119.27
119.23
119.22
119.20
119.17
119.17
119.15
119.13
119.10
119.05
119.00
118.92
118.80
118.70
118.57
118.47
118.38
118.32
118.27
118.25
118.25
118.25
118.30
118.38
118.48
118.57
118.63
118.68
118.75
118.78
118.80
118.80
118.80
118.82
118.85
118.90
118.93
118.97
119.00
119.02
119.02
118.97
118.90
118.85
118.78
118.72
118.68
118.67
118.68
118.72
118.73
118.78
118.83
118.88
118.92
118.95
119.00
119.05
119.10
119.17
119.23
119.30
119.35
119.42
119.47
119.50
119.53
119.55
119.55
119.55
119.55
119.53
119.52
119.53
119.57
119.57
119.58
119.58
119.58
119.58
119.58
119.57
119.52
119.43
119.33
119.23
119.15
119.07
118.98
118.93
118.90
118.83
118.75
118.70
118.82
118.90
118.85
118.80
118.50
117.98
117.43
116.98
116.48
116.15
115.85
115.43
114.75
113.92
113.03
112.32
111.62
110.92
110.22
109.48
108.78
108.10
107.22
106.35
106.13
105.95
105.80
105.68
105.62
105.53
105.48
105.45
105.43
105.45
105.48
105.53
105.60
105.70
105.80
105.87
105.93
106.00
106.03
106.07
106.10
106.12
106.07
106.02
105.93
105.85
105.80
105.73
105.50
105.25
104.98
104.70
104.30
103.93
103.53
103.07
102.40
101.72
101.17
100.58
100.28
100.20
100.17
100.13
100.10
99.92
99.68
99.57
99.72
99.98
100.08
100.05
100.02
99.97
99.88
99.78
99.87
99.90
100.20
100.50
100.12
99.70
99.27
98.83
98.35
97.93
97.42
96.85
96.28
95.75
95.13
94.50
93.82
93.17
92.50
91.82
91.13
90.48
89.85
89.32
88.85
88.30
87.78
87.32
86.87
86.42
85.90
85.13
84.48
83.83
83.30
83.38
83.58
83.93
84.32
84.73
85.18
85.68
86.22
86.77
87.30
87.83
88.37
88.88
89.45
90.00
90.60
91.20
91.78
92.37
93.15
93.90
94.65
95.45
96.25
97.08
97.70
98.35
98.92
99.47
100.03
100.58
101.15
101.68
102.23
102.73
103.32
103.90
104.52
105.08
105.70
106.28
106.87
107.42
107.97
108.52
109.02
109.47
109.90
110.25
110.53
110.88
111.25
111.60
111.95
112.30
112.70
113.38
114.15
114.95
115.67
115.80
115.93
115.97
115.98
116.00
115.98
115.97
115.93
115.88
115.78
115.70
115.57
115.45
115.33
115.33
115.32
115.28
115.27
115.28
115.30
115.32
115.32
115.32
115.32
115.32
115.33
115.35
115.37
115.38
115.40
115.42
115.42
115.42
115.42
115.42
115.43
115.47
115.47
115.48
115.53
115.62
115.75
115.88
116.03
116.20
116.40
116.60
116.80
116.98
117.17
117.35
117.50
117.62
117.73
117.83
117.92
117.97
118.00
118.05
118.10
118.15
118.17
118.13
118.13
118.13
118.13
118.10
118.08
118.10
118.22
118.32
118.47
118.58
118.68
118.65
118.67
118.70
118.73
118.77
118.83
118.90
119.00
119.03
118.98
118.98
118.95
118.87
118.78
118.70
118.63
118.55
118.47
118.38
118.28
118.18
118.07
117.97
117.88
117.78
117.68
117.58
117.48
117.43
117.38
117.33
117.27
117.23
117.20
117.12
117.02
116.97
116.93
116.92
116.90
116.90
116.90
116.90
116.90
116.85
116.78
116.72
116.70
116.73
116.80
116.88
116.97
117.07
117.15
117.22
117.22
117.20
117.15
117.08
117.00
116.97
116.90
116.87
116.83
116.78
116.70
116.60
116.47
116.35
116.30
116.22
116.15
116.15
116.17
116.18
116.20
116.22
116.25
116.27
116.28
116.32
116.33
116.37
116.38
116.42
116.42
116.42
116.42
116.38
116.35
116.33
116.33
116.33
116.37
116.45
116.48
116.50
116.53
116.57
116.60
116.63
116.65
116.73
116.82
116.92
117.00
117.08
117.17
117.25
117.28
117.28
117.30
117.30
117.30
117.27
117.23
117.22
117.23
117.27
117.32
117.35
117.35
117.32
117.25
117.18
117.10
117.03
116.98
116.95
116.93
116.90
116.87
116.85
116.82
116.78
116.73
116.65
116.53
116.43
116.32
116.15
116.00
115.83
115.68
115.55
115.45
115.37
115.27
115.17
115.10
115.03
115.00
114.97
114.90
114.83
114.83
114.80
114.75
114.70
114.65
114.53
114.43
114.30
114.15
114.02
113.92
113.80
113.70
113.65
113.62
113.60
113.58
113.57
113.55
113.55
113.55
113.55
113.50
113.45
113.40
113.33
113.30
113.27
113.27
113.27
113.28
113.28
113.28
113.30
113.33
113.37
113.43
113.48
113.53
113.57
113.63
113.75
113.87
113.98
114.12
114.27
114.42
114.58
114.73
114.83
114.95
115.08
115.18
115.28
115.32
115.33
115.32
115.27
115.22
115.15
115.08
115.07
115.10
115.15
115.18
115.30
115.42
115.52
115.60
115.67
115.70
115.75
115.73
115.65
115.57
115.48
115.38
115.23
115.03
114.85
114.70
114.48
114.32
114.15
113.98
113.80
113.63
113.48
113.40
113.27
113.12
113.00
112.82
112.55
112.22
112.05
111.90
111.73
111.60
111.62
111.60
111.58
111.58
111.58
111.58
111.60
111.62
111.60
111.58
111.60
111.62
111.60
111.62
111.65
111.72
111.78
111.83
111.90
111.98
112.10
112.20
112.30
112.37
112.42
112.48
112.52
112.55
112.57
112.60
112.62
112.65
112.68
112.77
112.83
112.95
113.07
113.18
113.35
113.60
113.90
114.17
114.30
114.42
114.53
114.65
114.80
114.93
115.07
115.10
115.22
115.37
115.48
115.67
115.92
116.23
116.38
116.50
116.65
116.72
116.65
116.60
116.52
116.42
116.32
116.22
116.12
116.02
115.95
115.88
115.82
115.73
115.67
115.60
115.52
115.43
115.35
115.27
115.18
115.08
114.95
114.83
114.70
114.55
114.38
114.22
114.05
113.88
113.72
113.48
113.28
113.08
112.90
112.72
112.53
112.30
112.08
111.88
111.75
111.62
111.45
111.30
111.38
111.48
111.62
111.75
111.87
112.00
112.13
112.35
112.55
112.73
112.93
113.12
113.28
113.38
113.45
113.52
113.55
113.65
113.77
113.88
114.07
114.25
114.45
114.63
114.82
115.02
115.18
115.40
115.55
115.68
115.82
115.93
116.03
116.13
116.17
116.23
116.28
116.42
116.55
116.67
116.73
116.80
116.98
117.15
117.33
117.52
117.72
118.00
118.28
118.57
118.82
119.03
119.30
119.55
119.77
119.98
120.13
120.27
120.40
120.53
120.65
120.77
120.88
121.00
121.12
121.23
121.33
121.38
121.40
121.42
121.42
121.45
121.53
121.67
121.82
122.00
122.20
122.40
122.57
122.75
122.87
123.00
123.10
123.17
123.23
123.23
123.27
123.27
123.30
123.35
123.20
123.08
122.98
122.87
122.85
122.83
122.78
122.68
122.58
122.52
122.48
122.45
122.33
122.23
122.15
122.07
122.00
121.93
121.83
121.73
121.63
121.52
121.33
121.15
120.98
120.82
120.67
120.53
120.40
120.25
120.10
119.93
119.73
119.53
119.33
119.12
118.93
118.75
118.58
118.42
118.25
118.05
117.80
117.55
117.30
117.02
116.75
116.47
116.20
115.92
115.67
115.43
115.22
115.05
114.88
114.75
114.60
114.43
114.28
114.12
114.12
114.08
114.03
114.00
113.93
113.85
113.83
113.82
113.82
113.82
113.73
113.53
113.28
113.03
112.85
112.62
112.35
111.67
112.13
112.60
113.03
113.50
114.00
114.50
115.02
115.48
115.93
116.35
116.75
117.18
117.62
118.05
118.48
118.93
119.38
119.82
120.23
120.55
120.88
121.22
121.57
121.92
122.43
122.80
123.18
123.57
123.92
124.27
124.62
124.93
125.23
125.55
125.85
126.18
126.50
126.87
127.27
127.68
128.10
128.52
128.93
129.30
129.63
130.02
130.43
130.78
131.12
131.43
131.45
131.40
131.43
131.45
131.32
131.20
131.03
130.90
130.77
131.02
130.15
129.28
128.45
127.62
126.75
125.90
125.02
124.15
123.25
122.35
121.45
120.52
119.60
118.68
117.73
116.77
115.75
114.72
113.67
112.72
111.83
110.87
109.90
108.97
107.88
106.92
106.00
105.85
105.70
105.55
105.43
105.38
105.37
105.32
105.27
105.18
105.10
104.95
104.78
104.63
104.47
104.33
104.27
104.27
104.27
104.28
104.32
104.42
104.50
104.58
104.93
105.23
105.57
106.07
106.77
107.42
108.03
108.68
109.33
110.00
110.63
111.28
111.95
112.62
113.32
114.00
114.72
115.47
116.27
117.10
117.93
118.82
119.67
120.53
121.45
122.37
123.35
124.37
125.35
126.32
127.20
128.18
129.15
130.12
131.10
132.12
133.12
133.33
133.58
133.80
133.98
134.13
134.22
134.30
134.38
134.47
134.57
134.72
134.83
134.92
135.07
135.20
135.28
135.37
135.47
135.50
135.50
135.53
135.55
135.58
135.68
135.90
136.07
136.23
136.37
136.57
136.73
136.92
137.12
137.30
137.50
137.68
137.83
137.98
138.12
138.28
138.40
138.52
138.65
138.72
138.75
138.73
138.72
138.63
138.52
138.43
138.32
138.18
138.07
138.05
137.98
138.08
138.22
138.32
138.40
138.52
138.57
138.63
138.63
138.65
138.62
138.57
138.58
138.52
138.52
138.52
138.52
138.53
138.58
138.65
138.65
138.73
138.82
138.88
138.93
139.00
139.03
139.05
139.10
139.13
139.13
139.12
139.13
139.13
139.13
139.10
139.08
139.03
138.95
138.87
138.78
138.68
138.60
138.52
138.42
138.30
138.22
138.13
138.03
137.95
137.90
137.85
137.82
137.83
137.87
137.87
137.90
137.97
138.05
138.07
138.15
138.03
137.92
137.80
137.72
137.62
137.55
137.53
137.55
137.58
137.68
137.75
137.82
137.97
138.10
138.20
138.33
138.45
138.28
138.10
137.92
137.67
137.40
137.13
136.93
136.72
136.48
136.23
135.98
135.73
135.48
135.25
135.00
134.75
134.50
134.32
134.15
134.00
133.87
133.72
133.55
133.38
133.22
133.07
132.97
132.87
132.78
132.77
132.77
132.78
132.80
132.83
132.87
132.90
132.97
133.00
133.02
133.02
133.00
132.98
132.93
132.90
132.85
132.80
132.72
132.60
132.48
132.32
132.13
131.95
131.73
131.57
131.42
131.30
131.15
131.05
130.85
130.73
130.90
130.70
130.52
130.28
130.15
130.07
130.12
130.17
130.28
130.37
130.47
130.57
130.67
130.75
130.83
130.90
130.98
131.00
131.03
131.03
131.03
131.05
131.07
131.12
131.17
131.20
131.22
131.23
131.22
131.13
131.02
130.87
130.72
130.57
130.43
130.30
130.15
130.03
129.92
129.80
129.70
129.53
129.38
129.22
129.07
128.93
128.82
128.72
128.60
128.48
128.40
128.33
128.28
128.27
128.15
128.00
127.85
127.68
127.55
127.37
126.95
126.92
126.90
126.92
126.78
126.65
126.33
126.03
125.73
125.52
125.30
125.30
125.27
124.98
124.72
124.63
124.55
124.47
124.38
124.30
124.20
124.15
124.12
124.03
123.95
123.85
123.72
123.58
123.47
123.33
123.22
123.15
123.07
122.98
122.88
122.78
122.67
122.55
122.43
122.32
122.20
122.13
122.07
122.03
121.98
121.95
121.90
121.87
121.85
121.85
121.83
121.82
121.80
121.75
121.77
121.78
121.77
121.75
121.75
121.68
121.82
121.95
122.05
122.18
122.38
122.55
122.73
122.90
123.02
123.10
123.15
122.98
122.90
123.05
123.17
123.10
123.05
123.00
122.92
122.78
122.68
122.55
122.43
122.33
122.25
122.20
122.18
122.20
122.22
122.30
122.35
122.42
122.52
122.60
122.68
122.77
122.83
122.88
122.92
122.93
122.95
122.95
122.97
122.95
122.93
122.92
122.90
122.85
122.83
122.78
122.73
122.68
122.63
122.60
122.57
122.55
122.57
122.58
122.62
122.67
122.73
122.80
122.87
122.92
122.95
123.02
123.08
123.13
123.20
123.27
123.35
123.47
123.40
123.30
123.22
123.15
123.07
122.85
122.67
122.55
122.42
122.23
121.92
121.48
121.02
120.58
120.10
119.57
119.05
118.47
117.90
117.37
116.82
116.10
115.40
114.72
114.03
113.28
112.53
111.77
111.02
110.35
109.68
109.00
108.53
108.50
108.45
108.43
108.38
108.35
108.32
108.32
108.32
108.32
108.32
108.32
108.30
108.28
108.28
108.30
108.30
108.28
108.28
108.27
108.27
108.25
108.22
108.20
108.20
108.22
108.25
108.27
108.43
108.65
108.87
109.08
109.28
109.63
109.97
110.30
110.65
111.03
111.52
112.13
112.75
113.30
113.87
114.45
115.07
115.72
116.38
116.98
117.60
118.42
119.22
120.02
120.85
121.77
122.68
123.67
124.65
125.58
126.48
127.48
128.27
128.57
128.65
128.72
128.78
128.82
128.85
128.80
128.73
128.65
128.55
128.42
128.35
128.30
128.23
128.17
128.12
128.07
128.00
127.92
127.83
127.73
127.65
127.57
127.52
127.47
127.38
127.28
127.15
127.00
126.83
126.67
126.52
126.35
126.22
126.08
125.95
125.82
125.72
125.58
125.45
125.32
125.18
125.07
124.92
124.72
124.28
123.87
123.45
123.02
122.67
122.35
122.00
121.73
121.47
121.18
120.85
120.50
120.17
119.75
119.33
118.95
118.85
118.75
118.68
118.65
118.63
118.70
118.80
118.92
119.05
119.20
119.32
119.38
119.47
119.55
119.63
119.73
119.85
119.97
120.10
120.22
120.33
120.43
120.48
120.52
120.60
120.68
120.78
120.93
121.10
121.27
121.43
121.60
121.70
121.77
121.93
122.10
122.22
122.35
122.48
122.62
122.65
122.70
122.75
122.83
123.15
123.45
123.70
123.93
124.07
124.12
124.17
124.13
124.12
124.10
124.12
124.17
124.23
124.33
124.45
124.55
124.60
124.63
124.62
124.62
124.60
124.53
124.43
124.32
124.22
124.08
123.92
123.78
123.62
123.43
123.23
123.00
122.75
122.52
122.27
122.03
121.82
121.63
121.47
121.28
121.07
120.85
120.63
120.37
120.12
119.87
119.63
119.40
119.18
118.98
118.67
118.33
118.02
117.72
117.43
117.17
117.03
116.90
116.77
116.65
116.52
116.38
116.28
116.23
116.18
116.20
116.23
116.27
116.32
116.33
116.43
116.48
116.50
116.48
116.45
116.52
116.65
116.80
116.90
116.98
117.07
117.13
117.12
117.15
117.20
117.27
117.35
117.43
117.58
117.70
117.82
117.92
118.02
118.12
118.07
118.02
117.97
117.92
117.87
117.83
117.82
117.80
117.80
117.80
117.77
117.73
117.67
117.58
117.52
117.48
117.47
117.50
117.57
117.63
117.72
117.80
117.87
117.90
117.92
117.92
117.93
117.93
117.90
117.82
117.75
117.65
117.55
117.45
117.35
117.27
117.12
116.98
116.87
116.77
116.68
116.52
116.28
116.03
115.83
115.58
115.30
115.02
114.83
114.60
114.35
114.13
113.93
113.77
113.57
113.40
113.25
113.12
113.00
112.88
112.90
112.93
112.97
112.98
113.00
113.02
113.03
113.05
113.05
113.05
113.07
113.10
113.15
113.22
113.28
113.35
113.42
113.48
113.53
113.57
113.58
113.58
113.55
113.48
113.40
113.30
113.20
113.10
113.07
113.07
113.10
113.15
113.22
113.28
113.33
113.37
113.35
113.32
113.20
113.15
113.08
113.02
112.95
112.92
112.92
112.97
113.10
113.18
113.28
113.38
113.45
113.48
113.48
113.47
113.42
113.40
113.40
113.43
113.50
113.55
113.62
113.67
113.68
113.70
113.68
113.63
113.55
113.45
113.37
113.28
113.22
113.13
113.07
113.00
112.93
112.85
112.77
112.63
112.50
112.38
112.27
112.18
112.13
112.12
112.10
112.12
112.10
112.08
112.03
111.98
111.90
111.82
111.72
111.68
111.65
111.62
111.60
111.60
111.67
111.55
111.47
111.37
111.27
111.15
111.00
110.87
110.62
110.43
110.23
110.08
109.90
109.72
109.57
109.42
109.32
109.20
109.07
109.03
108.97
108.90
108.83
108.75
108.67
108.57
108.47
108.35
108.25
108.15
108.03
107.95
107.85
107.78
107.70
107.65
107.62
107.60
107.57
107.57
107.57
107.57
107.57
107.55
107.53
107.52
107.53
107.53
107.57
107.62
107.67
107.67
107.68
107.68
107.70
107.67
107.65
107.67
107.72
107.80
107.92
108.15
108.37
108.60
108.83
109.07
109.32
109.55
109.83
110.10
110.37
110.58
110.85
111.15
111.45
111.73
112.00
112.25
112.50
112.67
112.83
113.00
113.17
113.35
113.53
113.72
113.87
114.02
114.15
114.28
114.42
114.53
114.65
114.75
114.85
114.92
114.98
115.05
115.15
115.25
115.38
115.52
115.67
115.85
116.02
116.18
116.32
116.43
116.53
116.62
116.68
116.78
116.87
116.95
117.05
117.13
117.18
117.22
117.20
117.15
116.97
116.82
116.65
116.47
116.28
116.10
115.92
115.73
115.58
115.43
115.30
115.17
115.08
114.97
114.85
114.75
114.70
114.67
114.65
114.60
114.57
114.55
114.57
114.57
114.58
114.60
114.67
114.77
114.87
114.97
115.05
115.13
115.20
115.22
115.18
115.13
115.05
114.95
114.85
114.78
114.70
114.62
114.52
114.38
114.25
114.12
114.00
113.92
113.85
113.82
113.82
113.85
113.87
113.88
113.88
113.88
113.90
113.90
113.92
113.90
113.98
114.07
114.12
114.17
114.23
114.27
114.30
114.28
114.25
114.23
114.22
114.20
114.15
114.12
114.08
114.03
113.93
113.80
113.67
113.55
113.40
113.27
113.10
112.95
112.80
112.67
112.53
112.38
112.27
112.17
112.08
111.98
111.90
111.85
111.85
111.88
111.92
111.93
111.93
111.92
111.90
111.88
111.88
111.92
111.97
112.02
112.07
112.10
112.13
112.15
112.17
112.15
112.13
112.18
112.20
112.18
112.12
112.05
111.98
111.95
111.97
111.95
111.98
112.13
112.27
112.42
112.55
112.73
112.90
112.95
112.98
113.03
113.05
113.07
113.07
113.07
113.07
113.12
113.20
113.27
113.37
113.40
113.42
113.55
113.68
113.80
113.90
114.00
114.00
114.02
114.03
114.08
114.10
114.12
114.13
114.12
114.12
114.13
114.15
114.15
114.12
114.08
114.03
113.97
113.93
113.92
113.92
113.92
113.90
113.88
113.85
113.80
113.75
113.63
113.55
113.48
113.47
113.47
113.47
113.47
113.45
113.43
113.42
113.32
113.23
113.17
113.12
113.08
113.07
113.13
113.18
113.20
113.23
113.28
113.33
113.40
113.45
113.48
113.45
113.42
113.37
113.30
113.27
113.10
112.93
112.80
112.83
112.87
112.98
113.05
113.12
113.17
113.25
113.32
113.37
113.43
113.52
113.60
113.72
113.83
113.95
114.07
114.17
114.25
114.28
114.28
114.25
114.22
114.18
114.18
114.20
114.22
114.25
114.28
114.30
114.33
114.37
114.40
114.45
114.52
114.55
114.53
114.53
114.53
114.52
114.50
114.47
114.42
114.37
114.37
114.28
114.25
114.22
114.13
114.07
113.97
113.87
113.73
113.63
113.55
113.50
113.53
113.57
113.60
113.63
113.67
113.55
113.43
113.28
113.15
113.02
112.85
112.67
112.48
112.32
112.18
112.07
111.98
111.88
111.80
111.75
111.72
111.70
111.68
111.68
111.70
111.72
111.73
111.77
111.77
111.75
111.75
111.75
111.77
111.80
111.83
111.88
111.92
111.97
112.03
112.13
112.28
112.40
112.50
112.60
112.70
112.82
112.92
113.02
113.10
113.30
113.47
113.63
113.83
114.02
114.22
114.42
114.63
114.83
115.02
115.15
115.27
115.35
115.45
115.53
115.60
115.65
115.70
115.77
115.85
115.93
116.05
116.18
116.33
116.50
116.63
116.75
116.83
116.90
116.95
116.98
117.00
117.00
117.00
117.00
117.00
117.02
117.03
117.05
117.07
117.12
117.15
117.20
117.23
117.25
117.27
117.27
117.30
117.32
117.30
117.27
117.22
117.17
117.10
117.00
116.90
116.80
116.72
116.65
116.58
116.50
116.42
116.32
116.20
116.07
115.93
115.80
115.67
115.55
115.45
115.37
115.28
115.23
115.22
115.23
115.27
115.33
115.42
115.52
115.62
115.72
115.80
115.88
115.98
116.03
116.13
116.22
116.32
116.43
116.53
116.63
116.72
116.80
116.88
116.98
117.08
117.18
117.30
117.42
117.53
117.60
117.68
117.75
117.80
117.85
117.90
117.92
117.92
117.92
117.93
117.97
118.02
118.08
118.18
118.28
118.40
118.50
118.60
118.68
118.75
118.78
118.83
118.87
118.95
119.07
119.13
119.30
119.45
119.63
119.80
119.95
120.08
120.18
120.25
120.18
120.05
119.93
119.82
119.70
119.57
119.43
119.32
119.22
119.10
119.02
118.88
118.75
118.60
118.45
118.32
118.18
118.08
118.00
117.92
117.80
117.68
117.57
117.43
117.32
117.18
117.07
116.92
116.78
116.65
116.52
116.40
116.32
116.35
116.33
116.32
116.28
116.22
116.12
115.98
115.87
115.73
115.63
115.53
115.45
115.38
115.35
115.28
115.25
115.18
115.10
115.07
114.92
114.78
114.58
114.37
114.17
113.97
113.78
113.62
113.57
113.60
113.60
113.62
113.65
113.70
113.77
113.82
113.85
113.88
113.92
113.97
114.02
114.07
114.12
114.15
114.20
114.23
114.27
114.28
114.32
114.35
114.35
114.33
114.30
114.25
114.20
114.17
114.13
114.13
114.15
114.17
114.22
114.17
114.18
114.20
114.23
114.30
114.40
114.52
114.67
114.83
114.98
115.13
115.25
115.37
115.47
115.53
115.58
115.63
115.67
115.70
115.73
115.78
115.85
115.93
116.00
116.08
116.15
116.18
116.20
116.18
116.17
116.13
116.10
116.08
116.07
116.08
116.08
116.10
116.12
116.12
116.12
116.13
116.13
116.15
116.15
116.12
116.07
116.00
115.92
115.83
115.78
115.75
115.73
115.75
115.78
115.82
115.85
115.85
115.83
115.80
115.73
115.65
115.57
115.45
115.32
115.18
115.03
114.90
114.75
114.60
114.43
114.27
114.10
113.92
113.73
113.60
113.47
113.33
113.23
113.15
113.10
113.07
113.05
113.03
113.05
113.08
113.13
113.18
113.23
113.27
113.28
113.27
113.23
113.18
113.10
113.00
112.93
112.85
112.75
112.63
112.55
112.48
112.43
112.40
112.52
112.67
112.82
113.00
113.17
113.32
113.45
113.57
113.67
113.75
113.82
113.92
114.00
114.10
114.18
114.32
114.43
114.57
114.70
114.87
115.07
115.28
115.53
115.77
116.00
116.22
116.43
116.65
116.87
117.07
117.23
117.40
117.58
117.77
117.93
118.08
118.22
118.28
118.40
118.48
118.55
118.58
118.58
118.62
118.65
118.73
118.72
118.75
118.77
118.75
118.72
118.58
118.47
118.37
118.27
118.22
118.15
118.07
118.00
117.93
117.73
117.53
117.35
117.15
116.98
116.83
116.70
116.58
116.47
116.37
116.27
116.17
116.07
115.97
115.92
115.82
115.75
115.67
115.57
115.45
115.30
115.15
114.97
114.77
114.57
114.37
114.18
114.00
113.85
113.75
113.72
113.68
113.65
113.62
113.57
113.48
113.40
113.35
113.23
113.15
113.07
113.00
112.98
112.95
112.95
112.93
113.05
113.17
113.30
113.48
113.70
114.00
114.27
114.52
114.78
115.02
115.23
115.47
115.68
115.87
116.03
116.20
116.35
116.53
116.68
116.83
116.97
117.10
117.25
117.42
117.58
117.73
117.87
118.00
117.98
117.97
117.92
117.85
117.77
117.67
117.57
117.45
117.38
117.37
117.37
117.38
117.45
117.52
117.58
117.65
117.70
117.75
117.80
117.83
117.73
117.70
117.68
117.68
117.68
117.67
117.63
117.58
117.50
117.42
117.30
117.17
117.00
116.83
116.67
116.48
116.30
116.15
116.02
115.92
115.83
115.77
115.73
115.67
115.58
115.50
115.40
115.27
115.12
114.95
114.80
114.63
114.50
114.35
114.20
114.07
113.93
113.78
113.62
113.45
113.42
113.37
113.28
113.20
113.15
113.12
113.12
113.13
113.15
113.15
113.10
113.03
112.88
112.70
112.48
112.25
112.02
111.78
111.55
111.33
111.28
111.22
111.15
111.05
110.97
110.93
110.97
111.02
111.08
111.15
111.23
111.32
111.40
111.45
111.50
111.55
111.58
111.62
111.65
111.67
111.68
111.68
111.65
111.62
111.58
111.57
111.55
111.57
111.63
111.72
111.82
111.97
112.07
112.17
112.27
112.35
112.43
112.55
112.72
112.93
113.15
113.38
113.65
113.92
114.17
114.42
114.62
114.80
114.97
115.12
115.25
115.38
115.68
116.00
116.20
116.15
116.10
116.05
116.00
115.97
115.92
115.85
115.78
115.73
115.68
115.63
115.50
115.35
115.22
115.08
114.98
114.80
114.62
114.42
114.23
114.03
113.83
113.58
113.30
113.05
112.77
112.53
112.25
112.00
111.77
111.57
111.40
111.23
111.18
111.10
111.00
110.85
110.73
110.62
110.48
110.33
110.18
110.03
109.88
109.72
109.53
109.42
109.32
109.23
109.15
109.07
108.97
108.85
108.72
108.62
108.55
108.48
108.28
108.08
108.02
108.18
108.30
108.45
108.60
108.75
108.92
109.10
109.28
109.48
109.67
109.82
109.97
110.12
110.25
110.40
110.52
110.70
110.90
111.15
111.43
111.75
112.08
112.45
112.83
113.17
113.50
113.73
114.03
114.30
114.53
114.73
114.92
115.08
115.10
115.13
115.18
115.28
115.38
115.52
115.67
115.83
116.00
116.15
116.27
116.35
116.42
116.42
116.40
116.38
116.37
116.35
116.38
116.45
116.53
116.58
116.67
116.73
116.80
116.88
116.95
117.02
117.10
117.13
117.17
117.18
117.20
117.22
117.23
117.25
117.27
117.30
117.37
117.45
117.53
117.60
117.67
117.73
117.78
117.80
117.75
117.67
117.58
117.50
117.40
117.30
117.22
117.18
117.12
117.05
117.00
116.95
116.90
116.87
116.87
116.88
116.92
116.92
116.93
116.93
116.93
116.92
116.90
116.88
116.88
116.88
116.90
116.90
116.90
116.90
116.90
116.90
116.88
116.85
116.78
116.73
116.65
116.58
116.50
116.43
116.40
116.38
116.42
116.47
116.52
116.58
116.60
116.62
116.63
116.65
116.67
116.68
116.72
116.77
116.80
116.85
116.87
116.90
116.93
116.98
117.05
117.13
117.22
117.28
117.35
117.42
117.48
117.55
117.62
117.70
117.77
117.83
117.85
117.87
117.85
117.82
117.75
117.73
117.73
117.73
117.72
117.72
117.70
117.68
117.67
117.58
117.50
117.43
117.38
117.30
117.22
117.12
117.00
116.90
116.80
116.70
116.67
116.67
116.70
116.72
116.72
116.65
116.58
116.52
116.43
116.33
116.27
116.17
116.03
115.87
115.72
115.52
115.30
115.08
114.92
114.73
114.62
114.52
114.42
114.30
114.18
114.05
113.90
113.75
113.60
113.45
113.30
113.15
113.02
112.87
112.73
112.60
112.52
112.43
112.37
112.28
112.22
112.10
111.95
111.82
111.68
111.53
111.42
111.33
111.25
111.23
111.23
111.23
111.23
111.30
111.38
111.48
111.60
111.73
111.85
111.93
111.97
111.95
111.90
111.83
111.77
111.77
111.75
111.73
111.73
111.73
111.72
111.72
111.73
111.75
111.73
111.75
111.77
111.77
111.73
111.70
111.63
111.55
111.50
111.48
111.48
111.52
111.58
111.68
111.78
111.85
111.90
111.93
111.93
111.92
111.88
111.85
111.83
111.82
111.82
111.85
111.88
111.95
112.02
112.07
112.10
112.13
112.12
112.07
111.98
111.90
111.78
111.65
111.52
111.37
111.20
111.05
110.92
110.75
110.60
110.45
110.27
110.12
109.98
109.87
109.75
109.63
109.55
109.48
109.42
109.35
109.30
109.28
109.28
109.30
109.35
109.40
109.45
109.50
109.52
109.52
109.48
109.45
109.40
109.33
109.27
109.18
109.08
108.97
108.83
108.70
108.58
108.48
108.43
108.40
108.38
108.37
108.42
108.45
108.47
108.45
108.45
108.40
108.37
108.40
108.50
108.53
108.57
108.60
108.67
108.73
108.68
108.68
108.70
108.72
108.75
108.78
108.80
108.87
108.92
109.00
109.08
109.13
109.20
109.27
109.35
109.43
109.47
109.53
109.62
109.67
109.68
109.63
109.57
109.48
109.42
109.33
109.18
109.05
108.95
108.90
108.87
108.90
108.98
109.07
109.15
109.27
109.38
109.53
109.72
109.90
110.03
110.15
110.08
109.98
109.87
109.77
109.58
109.37
109.17
108.95
108.73
108.47
108.13
107.77
107.40
107.02
106.68
106.40
106.08
105.75
105.62
105.48
105.28
105.12
104.92
104.72
104.52
104.35
104.18
104.02
103.85
103.77
103.65
103.52
103.38
103.25
103.10
103.12
103.30
103.53
103.82
104.17
104.55
104.93
105.27
105.65
106.10
106.53
106.97
107.38
107.80
108.15
108.43
108.70
108.90
109.07
109.22
109.33
109.47
109.65
109.90
110.15
110.63
111.15
111.70
112.23
112.77
113.32
113.83
114.38
114.88
115.50
116.03
116.55
117.00
117.53
118.05
118.52
119.03
119.57
120.03
120.43
120.90
121.33
121.77
122.17
122.57
122.88
123.23
123.57
123.95
124.25
124.58
124.93
125.27
125.58
125.95
126.10
126.10
126.00
125.90
125.75
125.58
125.45
125.33
125.18
125.05
124.87
124.68
124.48
124.32
124.15
124.02
123.95
123.95
123.97
124.03
124.08
124.17
124.23
124.32
124.43
124.45
124.45
124.42
124.37
124.30
124.27
124.22
124.15
124.12
124.00
123.98
123.92
123.83
123.73
123.62
123.48
123.32
123.12
122.90
122.77
122.62
122.45
122.08
121.77
121.37
120.95
120.53
120.12
119.72
119.30
118.77
118.07
117.43
116.65
115.88
115.10
114.33
113.63
112.93
112.25
111.55
110.87
110.18
109.48
108.82
108.17
107.53
106.88
106.18
105.52
104.77
103.95
103.03
102.15
101.23
100.30
99.32
98.35
97.23
96.18
95.20
94.25
93.32
92.40
91.58
90.70
89.85
89.00
88.17
87.37
86.63
85.93
85.28
84.63
84.03
83.55
83.00
82.48
82.00
81.45
80.92
80.17
79.63
79.17
79.08
79.00
78.92
78.78
78.53
78.32
78.17
78.20
78.17
78.30
78.38
78.48
78.53
78.60
78.63
78.65
78.67
78.68
78.67
78.68
78.72
78.82
78.92
79.03
79.20
79.30
79.38
79.40
79.52
79.57
79.62
79.70
79.73
79.77
79.87
79.88
79.92
79.92
79.92
80.00
79.98
79.98
80.05
80.33
80.42
80.47
80.60
81.22
81.82
82.43
83.03
83.53
84.12
84.68
85.23
85.80
86.33
87.08
87.85
88.55
88.92
89.30
89.68
90.10
90.60
91.12
91.65
92.17
92.03
91.90
91.73
91.57
91.32
91.05
90.93
90.83
90.78
90.67
90.60
90.50
90.30
90.07
89.83
89.62
89.42
89.22
89.12
89.08
89.05
89.02
88.98
88.95
89.13
89.28
89.53
89.75
89.90
90.07
90.28
90.37
90.48
90.65
90.73
90.85
91.13
91.42
91.63
91.38
91.12
90.88
90.62
90.37
90.10
89.82
89.53
89.25
88.98
88.73
88.43
88.12
87.80
87.52
87.23
86.80
86.32
85.82
85.32
84.83
85.07
85.32
85.68
86.12
86.62
87.08
87.42
87.58
87.70
87.83
88.00
88.25
88.53
88.67
88.75
88.77
88.75
88.75
88.77
88.77
88.75
88.72
88.72
88.72
88.60
88.47
88.32
88.22
88.13
87.83
87.53
87.23
86.92
87.03
87.15
87.02
86.97
86.95
86.87
86.75
86.63
86.47
86.33
86.12
85.88
85.70
85.53
85.52
85.48
85.48
85.50
85.42
85.38
85.32
85.20
85.22
85.27
85.32
85.35
85.38
85.35
85.25
85.08
84.85
84.63
84.38
83.95
83.68
83.40
83.57
83.68
83.77
83.87
84.12
84.53
84.95
85.37
85.82
86.28
86.78
87.30
87.80
88.28
88.77
89.22
89.70
90.30
90.88
91.47
92.27
93.02
93.83
94.65
95.03
95.43
95.83
96.17
96.50
96.83
97.18
97.55
97.93
98.30
98.73
99.20
99.65
100.12
100.43
100.77
101.05
101.37
101.77
102.15
102.50
102.88
103.30
103.75
104.20
104.68
105.15
105.63
106.15
106.67
107.18
107.72
108.33
109.13
109.93
110.75
111.13
111.53
111.90
112.23
112.57
112.75
113.00
113.23
113.43
113.58
113.72
113.83
114.03
114.15
114.23
114.28
114.48
114.57
114.23
114.00
113.53
113.12
112.63
112.15
111.62
111.17
110.75
110.30
109.82
109.33
108.83
108.33
107.70
107.10
106.52
105.88
105.25
104.58
103.92
103.30
102.68
102.18
101.65
101.12
100.60
100.25
99.87
99.20
98.53
97.85
97.13
96.40
95.58
94.77
94.05
93.32
93.33
93.35
93.35
93.35
93.33
93.30
93.25
93.20
93.15
93.10
93.07
93.05
93.07
93.08
93.15
93.22
93.25
93.33
93.43
93.55
93.50
93.43
93.63
93.73
94.10
94.40
94.78
95.17
95.65
96.03
96.42
96.82
97.27
97.75
98.28
98.83
99.52
100.17
100.80
101.45
102.10
102.75
103.40
104.00
104.60
105.07
105.58
106.10
106.63
106.98
107.37
108.02
108.68
109.35
110.07
110.75
111.55
112.35
113.05
113.75
113.68
113.63
113.62
113.60
113.60
113.58
113.58
113.60
113.62
113.65
113.63
113.63
113.65
113.65
113.62
113.58
113.55
113.52
113.48
113.45
113.43
113.40
113.53
113.68
113.78
113.88
113.95
114.03
114.07
114.12
114.15
114.20
114.23
114.27
114.25
114.22
114.18
114.15
114.13
114.10
114.05
114.00
113.95
113.90
113.88
113.88
113.88
113.90
113.92
113.93
113.95
113.97
113.95
113.95
113.95
113.97
113.97
113.97
113.98
113.98
114.00
113.97
113.90
113.80
113.68
113.57
113.43
113.28
113.13
112.97
112.83
112.72
112.58
112.47
112.40
112.33
112.28
112.27
112.25
112.23
112.20
112.15
112.08
111.95
111.68
111.43
111.25
111.10
110.93
110.75
110.57
110.42
110.30
110.18
110.08
109.98
109.93
109.88
109.80
109.77
109.73
109.70
109.67
109.68
109.67
109.65
109.67
109.68
109.68
109.72
109.80
109.88
109.97
110.08
110.20
110.32
110.15
109.95
109.73
109.53
109.33
109.13
108.95
108.77
108.60
108.47
108.35
108.23
108.18
108.18
108.18
108.13
108.07
108.00
107.90
107.82
107.73
107.63
107.57
107.50
107.47
107.45
107.45
107.55
107.82
108.08
108.28
108.43
108.60
108.63
108.67
108.68
108.65
108.55
108.48
108.18
107.62
107.07
106.53
106.00
105.50
105.03
104.57
104.02
103.57
103.13
102.63
102.17
101.68
101.18
100.60
100.00
99.37
98.67
97.98
97.33
96.95
96.62
96.10
95.62
95.07
94.55
94.18
93.88
93.52
93.17
92.78
92.40
91.88
91.62
91.43
91.25
91.05
90.85
90.65
90.42
90.18
89.93
89.67
89.43
89.25
89.07
88.87
88.62
88.35
88.08
87.88
87.62
87.40
87.33
86.98
86.50
86.03
85.67
85.20
85.00
85.03
85.02
84.97
84.90
84.70
84.85
85.00
85.18
85.25
85.32
85.40
85.42
85.50
85.55
85.63
85.73
85.88
86.10
86.25
86.38
86.50
86.58
86.87
87.10
87.35
87.55
87.60
87.67
87.85
87.95
88.03
88.12
88.27
88.18
88.02
87.95
87.92
87.87
87.75
87.58
87.52
87.55
87.58
87.72
87.87
88.00
88.37
88.72
89.07
89.40
89.65
89.97
90.23
90.48
91.02
91.67
92.32
92.90
93.55
94.17
94.77
95.40
96.07
96.73
97.50
97.88
98.27
98.65
99.05
99.42
99.80
100.20
100.55
100.95
101.33
101.72
102.08
102.43
102.82
103.20
103.63
104.10
104.57
105.08
105.67
106.30
106.95
107.55
108.08
108.63
109.22
109.80
110.37
110.85
111.32
111.68
112.03
112.42
112.83
113.32
113.70
114.02
114.35
114.55
114.67
114.78
114.67
114.55
114.43
114.33
114.25
114.20
114.17
114.18
114.20
114.23
114.27
114.30
114.30
114.28
114.25
114.20
114.15
114.12
114.07
114.00
113.93
113.87
113.80
113.75
113.67
113.58
113.53
113.47
113.42
113.35
113.30
113.23
113.18
113.12
113.02
112.88
112.73
112.55
112.37
112.18
112.00
111.82
111.68
111.58
111.50
111.42
111.35
111.30
111.25
111.20
111.13
111.05
111.00
110.95
110.90
110.83
110.75
110.65
110.55
110.47
110.38
110.32
110.25
110.18
110.12
110.02
109.88
109.70
109.50
109.28
109.07
108.85
108.67
108.48
108.33
108.22
108.10
107.98
107.92
107.87
107.82
107.77
107.70
107.62
107.52
107.40
107.28
107.15
107.00
106.87
106.73
106.62
106.50
106.42
106.40
106.38
106.35
106.32
106.25
106.17
106.07
105.95
105.80
105.63
105.47
105.32
105.17
105.05
104.95
104.90
104.87
104.87
104.88
104.92
104.93
104.95
104.98
105.03
105.08
105.13
105.17
105.20
105.23
105.25
105.27
105.27
105.30
105.35
105.42
105.48
105.57
105.68
105.80
105.93
106.05
106.13
106.22
106.28
106.33
106.37
106.40
106.42
106.47
106.52
106.58
106.67
106.73
106.82
106.92
107.02
107.12
107.18
107.27
107.33
107.35
107.40
107.48
107.60
107.72
107.85
107.98
108.12
108.22
108.32
108.42
108.52
108.60
108.67
108.70
108.70
108.70
108.67
108.58
108.48
108.38
108.30
108.20
108.10
108.00
107.90
107.82
107.73
107.65
107.57
107.48
107.40
107.30
107.20
107.08
106.97
106.83
106.68
106.53
106.40
106.27
106.13
106.02
105.92
105.83
105.77
105.72
105.68
105.63
105.60
105.58
105.57
105.53
105.50
105.47
105.43
105.40
105.38
105.33
105.28
105.22
105.15
105.07
104.95
104.87
104.77
104.67
104.58
104.55
104.52
104.48
104.45
104.43
104.42
104.42
104.42
104.42
104.42
104.43
104.45
104.48
104.50
104.52
104.53
104.53
104.53
104.53
104.52
104.52
104.55
104.58
104.63
104.68
104.73
104.80
104.87
104.92
104.97
105.02
105.05
105.08
105.13
105.15
105.18
105.18
105.20
105.23
105.28
105.33
105.37
105.42
105.47
105.55
105.65
105.73
105.83
105.93
106.03
106.15
106.28
106.45
106.60
106.77
106.92
107.05
107.18
107.32
107.43
107.52
107.62
107.70
107.77
107.82
107.85
107.87
107.92
107.98
108.03
108.12
108.18
108.23
108.28
108.30
108.30
108.32
108.33
108.33
108.35
108.35
108.33
108.32
108.27
108.22
108.17
108.12
108.08
108.08
108.10
108.10
108.12
108.15
108.17
108.18
108.13
108.10
108.05
107.97
107.87
107.77
107.67
107.57
107.47
107.37
107.23
107.12
106.98
106.83
106.70
106.55
106.38
106.22
106.07
105.90
105.75
105.60
105.50
105.40
105.32
105.25
105.18
105.12
105.07
105.02
105.00
105.02
105.05
105.10
105.20
105.25
105.33
105.42
105.50
105.62
105.73
105.83
105.95
106.10
106.27
106.42
106.57
106.68
106.85
107.02
107.05
107.10
107.13
107.13
107.10
107.07
107.00
106.87
106.82
106.80
106.85
106.90
107.13
107.37
107.58
107.78
107.95
108.07
108.15
108.17
108.20
108.20
108.18
108.17
108.12
108.07
108.00
107.92
107.82
107.73
107.65
107.57
107.45
107.35
107.25
107.15
107.05
106.97
106.88
106.83
106.73
106.62
106.45
106.25
106.00
105.77
105.52
105.23
104.90
104.57
104.28
104.03
103.77
103.50
103.30
103.10
102.88
102.70
102.48
102.27
102.20
102.13
102.08
102.07
102.07
102.08
102.13
102.23
102.28
102.32
102.33
102.40
102.28
102.20
102.13
102.05
101.98
101.93
101.88
101.88
101.88
101.92
101.97
102.03
102.12
102.18
102.25
102.32
102.35
102.37
102.37
102.38
102.42
102.43
102.45
102.47
102.48
102.52
102.53
102.53
102.57
102.62
102.65
102.68
102.73
102.78
102.85
102.95
103.10
103.25
103.37
103.45
103.53
103.58
103.57
103.58
103.62
103.67
103.75
103.83
103.90
103.95
104.00
104.02
104.03
104.05
104.05
104.07
104.07
104.07
104.05
104.00
103.95
103.87
103.78
103.73
103.72
103.72
103.75
103.78
103.82
103.83
103.85
103.87
103.87
103.88
103.93
103.97
104.03
104.10
104.18
104.25
104.30
104.35
104.40
104.47
104.55
104.62
104.72
104.83
104.95
105.05
105.15
105.25
105.35
105.47
105.57
105.65
105.75
105.85
105.97
106.08
106.18
106.30
106.38
106.43
106.47
106.48
106.47
106.45
106.43
106.42
106.37
106.32
106.28
106.25
106.25
106.23
106.25
106.27
106.32
106.38
106.45
106.50
106.57
106.67
106.78
106.88
107.00
107.12
107.22
107.33
107.43
107.52
107.60
107.70
107.77
107.85
107.93
108.03
108.12
108.18
108.22
108.23
108.27
108.28
108.32
108.38
108.33
108.30
108.47
108.62
108.78
108.93
109.08
109.22
109.33
109.47
109.57
109.65
109.68
109.72
109.73
109.72
109.70
109.68
109.68
109.68
109.70
109.72
109.77
109.82
109.90
110.03
110.15
110.23
110.30
110.35
110.37
110.35
110.32
110.22
110.12
110.05
109.97
109.85
109.70
109.57
109.43
109.28
109.17
109.05
108.93
108.83
108.75
108.65
108.57
108.48
108.40
108.27
108.17
108.08
108.03
108.02
108.00
108.00
107.98
107.93
107.98
108.02
107.83
107.68
107.53
107.42
107.28
107.18
107.12
107.05
107.00
106.97
106.98
107.02
107.08
107.22
107.35
107.52
107.70
107.88
108.07
108.25
108.40
108.55
108.67
108.73
108.80
108.90
108.98
109.07
109.15
109.25
109.32
109.40
109.42
109.43
109.43
109.43
109.38
109.33
109.28
109.25
109.22
109.18
109.28
109.38
109.47
109.60
109.75
109.92
110.10
110.33
110.58
110.83
111.05
111.28
111.45
111.53
111.60
111.65
111.68
111.68
111.70
111.70
111.67
111.62
111.57
111.48
111.38
111.30
111.25
111.23
111.18
111.13
111.08
111.00
110.92
110.85
110.77
110.68
110.60
110.53
110.45
110.37
110.30
110.25
110.22
110.18
110.20
110.17
110.28
110.42
110.60
110.82
111.12
111.40
111.70
112.00
112.30
112.60
112.88
113.17
113.42
113.68
113.83
114.00
114.18
114.33
114.47
114.58
114.68
114.73
114.75
114.75
114.75
114.68
114.67
114.68
114.68
114.70
114.72
114.72
114.72
114.70
114.72
114.72
114.72
114.72
114.72
114.70
114.65
114.58
114.55
114.53
114.52
114.50
114.48
114.42
114.32
114.22
114.12
114.00
113.87
113.80
113.65
113.43
113.22
113.00
112.70
112.35
111.85
111.30
110.80
110.30
109.82
109.42
109.00
108.58
108.27
107.97
107.65
107.40
107.17
106.93
106.68
106.45
106.22
105.97
105.75
105.57
105.38
105.23
105.10
105.00
104.92
104.87
104.77
104.73
104.70
104.65
104.60
104.57
104.53
104.50
104.45
104.42
104.40
104.38
104.37
104.35
104.33
104.30
104.22
104.07
103.93
103.83
103.75
103.70
103.70
103.70
103.72
103.73
103.80
103.80
103.88
104.05
104.18
104.32
104.45
104.70
104.93
105.20
105.42
105.58
105.72
105.77
105.85
105.95
106.02
106.07
106.15
106.18
106.23
106.27
106.37
106.43
106.50
106.57
106.60
106.60
106.57
106.58
106.57
106.55
106.57
106.58
106.67
106.72
106.78
106.85
106.93
107.05
107.15
107.28
107.42
107.53
107.63
107.72
107.80
107.85
107.88
107.92
108.00
108.15
108.28
108.40
108.53
108.68
108.83
108.98
109.10
109.22
109.32
109.40
109.43
109.40
109.38
109.35
109.38
109.42
109.48
109.58
109.68
109.83
109.98
110.10
110.20
110.27
110.32
110.37
110.38
110.37
110.32
110.23
110.10
109.95
109.80
109.67
109.55
109.45
109.38
109.27
109.15
109.03
108.90
108.75
108.57
108.40
108.22
108.05
107.87
107.70
107.55
107.40
107.27
107.15
107.05
106.98
106.93
106.90
106.88
106.87
106.85
106.82
106.78
106.72
106.63
106.53
106.42
106.28
106.17
106.07
105.97
105.87
105.83
105.85
105.88
105.93
105.95
105.95
105.93
105.90
105.83
105.75
105.65
105.58
105.52
105.47
105.40
105.33
105.30
105.28
105.30
105.35
105.42
105.52
105.65
105.80
105.95
106.08
106.30
106.53
106.80
107.07
107.35
107.65
108.02
108.38
108.75
109.08
109.50
109.85
110.17
110.38
110.60
110.82
111.03
111.25
111.27
111.30
111.32
111.32
111.28
111.25
111.22
111.20
111.18
111.15
111.12
111.10
111.08
111.05
111.02
111.00
110.97
110.93
110.88
110.83
110.78
110.75
110.73
110.72
110.70
110.68
110.68
110.68
110.70
110.70
110.73
110.77
110.75
110.73
110.70
110.67
110.55
110.42
110.27
110.03
109.90
109.77
109.35
109.32
109.25
109.17
109.07
108.97
108.80
108.60
108.45
108.35
108.18
108.07
108.00
108.03
108.03
108.03
108.02
108.00
108.15
108.32
108.57
108.82
109.07
109.32
109.57
109.82
110.07
110.32
110.57
110.82
111.05
111.27
111.47
111.65
111.83
112.02
112.20
112.38
112.55
112.70
112.80
112.88
112.97
113.05
113.12
113.17
113.20
113.25
113.28
113.32
113.37
113.42
113.48
113.60
113.77
113.93
114.10
114.30
114.38
114.43
114.63
114.43
114.25
114.12
114.00
113.88
113.80
113.77
113.72
113.63
113.52
113.37
113.18
112.98
112.80
112.53
112.28
112.03
111.78
111.50
111.15
110.82
110.50
110.22
109.95
109.68
109.42
109.15
108.87
108.58
108.32
108.08
107.88
107.70
107.58
107.52
107.42
107.32
107.22
107.08
106.97
106.87
106.73
106.58
106.45
106.32
106.17
105.98
105.77
105.55
105.33
105.12
104.90
104.62
104.32
103.73
103.13
102.53
101.98
101.42
100.88
100.37
99.83
99.30
98.78
98.25
97.73
97.18
96.62
96.08
95.55
95.00
94.50
94.03
93.57
93.17
92.78
92.35
91.83
91.28
90.70
90.15
89.65
89.12
88.60
88.07
87.52
87.10
86.67
86.27
85.82
85.35
84.87
84.37
83.83
83.18
82.52
81.80
81.12
80.53
80.12
79.70
79.33
78.93
78.52
78.12
77.68
77.23
76.85
76.45
76.07
75.68
75.25
74.78
74.48
74.47
74.43
74.42
74.35
74.33
74.35
74.33
74.35
74.33
74.28
74.25
74.20
74.17
74.15
74.13
74.13
74.12
74.00
73.92
73.87
73.82
73.77
73.68
73.62
73.63
73.83
74.03
74.17
74.30
74.30
74.28
74.30
74.20
74.03
73.82
73.65
73.67
73.68
73.72
73.72
73.77
73.90
74.15
74.42
74.65
74.77
74.87
75.03
75.18
75.35
75.52
75.78
76.12
76.40
76.70
76.98
77.22
77.53
77.87
78.05
78.25
78.47
78.72
78.93
79.20
79.40
79.65
79.85
79.90
79.93
79.93
79.95
79.97
79.88
79.78
79.85
80.02
80.23
80.38
80.45
80.43
80.42
80.50
80.60
80.65
80.53
80.33
80.13
80.13
80.22
80.32
80.42
80.48
80.68
80.90
81.12
81.15
81.18
81.27
81.30
81.33
81.32
81.25
81.15
81.08
80.93
80.78
80.43
80.20
79.95
79.65
79.28
78.88
78.50
78.15
78.43
78.73
79.23
79.78
79.35
78.90
78.43
77.88
77.37
77.07
76.73
76.37
76.07
76.08
76.18
76.33
76.42
76.35
76.63
76.93
76.83
76.70
76.57
76.42
76.33
76.37
76.33
76.25
76.22
76.18
76.12
76.10
76.08
76.38
76.72
77.02
77.33
77.72
78.15
78.57
79.05
79.55
79.98
80.35
80.85
81.38
81.93
82.45
82.97
83.45
84.12
84.78
85.57
86.32
87.07
87.83
88.58
89.35
90.08
90.77
90.83
90.95
90.82
90.68
91.55
92.42
93.28
94.18
95.13
95.82
97.03
97.55
98.07
98.40
98.65
98.85
99.10
99.47
99.63
99.78
100.18
100.57
100.95
101.27
101.60
101.98
102.43
102.90
103.42
103.93
104.52
105.10
105.70
105.78
105.83
105.90
105.97
105.93
105.80
105.70
105.55
105.52
105.57
105.62
105.60
105.62
105.63
105.67
105.70
105.70
105.57
105.45
105.40
105.33
105.27
105.25
105.28
105.32
105.37
105.18
104.92
104.48
104.05
103.63
103.23
102.73
102.32
101.92
101.47
101.00
99.97
99.67
99.27
98.80
98.33
97.98
97.68
97.40
97.03
96.68
96.35
95.98
95.77
95.67
95.53
95.35
95.15
94.92
94.63
94.37
94.05
93.73
93.38
93.05
92.72
92.40
91.98
91.63
91.28
90.90
90.47
89.93
89.32
88.73
88.13
87.38
86.65
85.92
85.20
84.57
83.92
83.23
82.65
82.08
81.52
80.97
80.33
79.77
79.05
79.08
79.22
79.77
80.37
80.95
81.55
82.48
83.32
84.18
85.03
85.88
86.85
87.78
88.77
89.83
90.90
91.88
92.82
93.75
94.72
95.67
96.62
97.58
98.42
99.23
100.03
100.82
101.60
102.42
103.27
104.13
105.02
105.38
105.85
106.40
106.85
107.25
107.70
108.08
108.52
108.95
109.40
109.78
110.20
110.60
111.02
111.58
112.13
112.52
112.88
113.18
113.50
113.88
114.13
114.35
114.60
114.93
115.33
115.68
116.18
116.20
116.18
115.83
115.42
115.03
114.60
113.92
113.17
112.20
111.27
110.35
109.42
108.48
107.55
106.60
105.65
104.68
103.70
102.70
101.70
100.75
99.75
98.75
97.73
96.75
95.77
94.77
93.77
92.83
92.00
91.08
90.32
90.07
89.75
89.35
89.07
88.87
88.68
88.57
88.38
88.20
88.08
88.05
88.18
88.40
88.60
88.83
89.05
89.42
89.80
90.17
90.52
90.82
91.08
91.37
91.63
91.78
91.93
92.05
92.18
92.30
92.43
92.62
92.82
92.97
93.12
93.30
93.57
94.00
94.42
94.82
95.23
95.63
96.05
96.47
96.87
97.32
97.78
98.27
98.73
99.15
99.60
100.07
100.55
100.98
101.47
101.97
102.48
102.93
103.27
103.67
103.93
104.18
104.43
104.68
104.93
105.17
105.42
105.65
105.92
106.20
106.43
106.60
106.63
106.58
106.53
106.38
106.25
106.15
106.03
105.93
105.85
105.80
105.75
105.70
105.65
105.60
105.57
105.55
105.55
105.57
105.60
105.65
105.68
105.70
105.72
105.70
105.72
105.77
105.83
105.93
106.05
106.20
106.35
106.48
106.63
106.72
106.77
106.78
106.80
106.80
106.78
106.78
106.78
106.80
106.80
106.82
106.80
106.78
106.75
106.70
106.63
106.58
106.53
106.47
106.42
106.37
106.30
106.23
106.15
106.07
105.98
105.92
105.88
105.87
105.87
105.92
106.00
106.10
106.23
106.38
106.57
106.77
107.00
107.25
107.48
107.72
107.93
108.15
108.30
108.37
108.38
108.38
108.37
108.33
108.20
108.15
108.03
107.93
107.82
107.47
107.08
106.70
106.32
105.83
