1530522523.000000
4.000000
0.000000
0.188333
0.256235
0.253673
0.252392
0.254954
0.253673
0.253673
0.252392
0.253673
0.252392
0.253673
0.252392
0.249829
0.249829
0.248548
0.247267
0.247267
0.244705
0.243424
0.243424
0.242142
0.239580
0.238299
0.238299
0.239580
0.238299
0.251111
0.244705
0.242142
0.242142
0.239580
0.237018
0.237018
0.237018
0.243424
0.244705
0.243424
0.240861
0.239580
0.238299
0.239580
0.239580
0.238299
0.238299
0.237018
0.235737
0.237018
0.234455
0.234455
0.235737
0.235737
0.235737
0.235737
0.233174
0.234455
0.233174
0.235737
0.235737
0.234455
0.234455
0.234455
0.233174
0.233174
0.233174
0.234455
0.234455
0.234455
0.231893
0.235737
0.233174
0.233174
0.233174
0.234455
0.233174
0.233174
0.231893
0.231893
0.231893
0.231893
0.233174
0.233174
0.235737
0.231893
0.233174
0.231893
0.231893
0.230612
0.231893
0.233174
0.233174
0.233174
0.231893
0.231893
0.233174
0.233174
0.231893
0.233174
0.233174
0.231893
0.233174
0.233174
0.239580
0.233174
0.231893
0.233174
0.238299
0.231893
0.231893
0.233174
0.234455
0.234455
0.233174
0.233174
0.233174
0.231893
0.233174
0.238299
0.233174
0.233174
0.235737
0.234455
0.233174
0.234455
0.235737
0.234455
0.234455
0.234455
0.235737
0.233174
0.235737
0.234455
0.235737
0.235737
0.235737
0.234455
0.235737
0.235737
0.234455
0.234455
0.234455
0.234455
0.235737
0.235737
0.235737
0.235737
0.237018
0.237018
0.235737
0.235737
0.237018
0.235737
0.234455
0.237018
0.240861
0.235737
0.235737
0.238299
0.235737
0.235737
0.237018
0.234455
0.244705
0.235737
0.237018
0.237018
0.243424
0.238299
0.238299
0.235737
0.237018
0.237018
0.237018
0.235737
0.238299
0.238299
0.235737
0.237018
0.235737
0.238299
0.237018
0.237018
0.237018
0.238299
0.237018
0.237018
0.237018
0.238299
0.238299
0.235737
0.238299
0.237018
0.237018
0.238299
0.237018
0.237018
0.239580
0.239580
0.238299
0.238299
0.238299
0.239580
0.239580
0.239580
0.239580
0.239580
0.239580
0.239580
0.242142
0.238299
0.240861
0.239580
0.240861
0.238299
0.239580
0.239580
0.240861
0.239580
0.239580
0.239580
0.239580
0.239580
0.240861
0.240861
0.240861
0.240861
0.239580
0.240861
0.239580
0.240861
0.242142
0.240861
0.240861
0.239580
0.247267
0.240861
0.242142
0.240861
0.240861
0.240861
0.242142
0.240861
0.244705
0.242142
0.242142
0.243424
0.240861
0.245986
0.240861
0.242142
0.242142
0.242142
0.242142
0.242142
0.242142
0.243424
0.244705
0.243424
0.243424
0.242142
0.243424
0.242142
0.244705
0.244705
0.244705
0.243424
0.244705
0.245986
0.245986
0.244705
0.245986
0.244705
0.244705
0.244705
0.245986
0.245986
0.245986
0.251111
0.245986
0.244705
0.245986
0.244705
0.245986
0.244705
0.244705
0.251111
0.247267
0.247267
0.245986
0.248548
0.245986
0.244705
0.247267
0.244705
0.245986
0.247267
0.245986
0.247267
0.245986
0.244705
0.247267
0.245986
0.245986
0.245986
0.247267
0.251111
0.247267
0.247267
0.245986
0.247267
0.247267
0.253673
0.247267
0.248548
0.247267
0.247267
0.247267
0.247267
0.244705
0.248548
0.247267
0.245986
0.251111
0.247267
0.253673
0.247267
0.247267
0.247267
0.253673
0.247267
0.247267
0.248548
0.248548
0.248548
0.247267
0.247267
0.247267
0.249829
0.247267
0.249829
0.248548
0.248548
0.248548
0.253673
0.247267
0.248548
0.249829
0.248548
0.248548
0.247267
0.249829
0.249829
0.249829
0.248548
0.248548
0.249829
0.249829
0.249829
0.248548
0.248548
0.249829
0.249829
0.249829
0.251111
0.249829
0.249829
0.251111
0.249829
0.251111
0.251111
0.252392
0.251111
0.249829
0.251111
0.249829
0.249829
0.252392
0.252392
0.251111
0.251111
0.248548
0.251111
0.251111
0.251111
0.252392
0.251111
0.252392
0.251111
0.253673
0.252392
0.251111
0.251111
0.251111
0.253673
0.253673
0.253673
0.251111
0.252392
0.252392
0.252392
0.253673
0.252392
0.254954
0.251111
0.252392
0.249829
0.253673
0.252392
0.252392
0.252392
0.253673
0.252392
0.251111
0.252392
0.252392
0.252392
0.252392
0.252392
0.253673
0.253673
0.252392
0.253673
0.252392
0.257517
0.252392
0.251111
0.252392
0.252392
0.253673
0.251111
0.252392
0.254954
0.254954
0.253673
0.253673
0.254954
0.254954
0.253673
0.254954
0.254954
0.254954
0.254954
0.254954
0.256235
0.256235
0.254954
0.256235
0.252392
0.254954
0.256235
0.254954
0.254954
0.256235
0.253673
0.256235
0.256235
0.254954
0.256235
0.256235
0.256235
0.257517
0.257517
0.258798
0.262641
0.256235
0.258798
0.257517
0.258798
0.258798
0.257517
0.257517
0.256235
0.256235
0.257517
0.258798
0.258798
0.258798
0.257517
0.263922
0.257517
0.254954
0.256235
0.261360
0.258798
0.257517
0.257517
0.257517
0.257517
0.258798
0.257517
0.258798
0.257517
0.256235
0.262641
0.254954
0.258798
0.257517
0.258798
0.258798
0.258798
0.257517
0.258798
0.258798
0.257517
0.262641
0.257517
0.257517
0.257517
0.258798
0.260079
0.263922
0.258798
0.257517
0.257517
0.257517
0.257517
0.258798
0.257517
0.258798
0.257517
0.265204
0.258798
0.258798
0.260079
0.258798
0.260079
0.263922
0.258798
0.260079
0.260079
0.261360
0.261360
0.260079
0.260079
0.258798
0.258798
0.260079
0.261360
0.260079
0.260079
0.261360
0.262641
0.262641
0.260079
0.261360
0.261360
0.261360
0.260079
0.262641
0.262641
0.262641
0.261360
0.267766
0.262641
0.261360
0.260079
0.261360
0.262641
0.261360
0.266485
0.261360
0.261360
0.266485
0.260079
0.256235
0.258798
0.256235
0.252392
0.254954
0.272891
0.263922
0.261360
0.258798
0.260079
0.257517
0.260079
0.263922
0.258798
0.261360
0.262641
0.263922
0.267766
0.266485
0.267766
0.269047
0.267766
0.267766
0.267766
0.267766
0.267766
0.267766
0.267766
0.270328
0.262641
0.257517
0.261360
0.256235
0.256235
0.254954
0.257517
0.257517
0.257517
0.257517
0.256235
0.257517
0.256235
0.257517
0.256235
0.258798
0.257517
0.257517
0.256235
0.258798
0.257517
0.257517
0.257517
0.257517
0.258798
0.258798
0.260079
0.265204
0.260079
0.258798
0.258798
0.257517
0.258798
0.260079
0.258798
0.258798
0.258798
0.260079
0.260079
0.261360
0.260079
0.260079
0.265204
0.260079
0.260079
0.261360
0.261360
0.261360
0.262641
0.269047
0.260079
0.261360
0.260079
0.260079
0.260079
0.260079
0.260079
0.260079
0.260079
0.261360
0.261360
0.260079
0.261360
0.260079
0.260079
0.262641
0.262641
0.261360
0.261360
0.261360
0.262641
0.262641
0.261360
0.262641
0.261360
0.262641
0.262641
0.263922
0.263922
0.263922
0.263922
0.267766
0.263922
0.262641
0.266485
0.254954
0.254954
0.257517
0.257517
0.263922
0.260079
0.260079
0.260079
0.261360
0.260079
0.260079
0.263922
0.261360
0.262641
0.261360
0.261360
0.261360
0.260079
0.263922
0.260079
0.261360
0.263922
0.263922
0.262641
0.263922
0.263922
0.262641
0.262641
0.262641
0.263922
0.263922
0.262641
0.263922
0.263922
0.262641
0.263922
0.265204
0.267766
0.269047
0.266485
0.269047
0.267766
0.266485
0.269047
0.274172
0.275453
0.279297
0.281859
0.281859
0.275453
0.272891
0.278015
0.280578
0.275453
0.275453
0.281859
0.276734
0.278015
0.279297
0.280578
0.281859
0.285702
0.286984
0.285702
0.288265
0.289546
0.288265
0.289546
0.290827
0.292108
0.293389
0.294671
0.293389
0.302358
0.295952
0.298514
0.297233
0.298514
0.298514
0.298514
0.299795
0.303639
0.299795
0.299795
0.299795
0.299795
0.298514
0.299795
0.299795
0.298514
0.298514
0.298514
0.298514
0.298514
0.299795
0.301077
0.298514
0.299795
0.298514
0.298514
0.299795
0.299795
0.304920
0.278015
0.272891
0.285702
0.293389
0.290827
0.284421
0.271609
0.271609
0.270328
0.271609
0.271609
0.270328
0.271609
0.270328
0.271609
0.295952
0.317732
0.275453
0.274172
0.271609
0.270328
0.274172
0.270328
0.271609
0.270328
0.276734
0.270328
0.269047
0.271609
0.271609
0.270328
0.275453
0.270328
0.269047
0.269047
0.267766
0.270328
0.270328
0.269047
0.269047
0.270328
0.269047
0.270328
0.270328
0.270328
0.269047
0.267766
0.269047
0.269047
0.270328
0.269047
0.269047
0.269047
0.270328
0.269047
0.267766
0.270328
0.269047
0.270328
0.270328
0.270328
0.271609
0.270328
0.270328
0.270328
0.276734
0.276734
0.274172
0.271609
0.272891
0.270328
0.271609
0.271609
0.271609
0.271609
0.272891
0.271609
0.271609
0.272891
0.272891
0.274172
0.272891
0.278015
0.271609
0.272891
0.271609
0.274172
0.275453
0.275453
0.274172
0.274172
0.275453
0.275453
0.280578
0.274172
0.274172
0.272891
0.275453
0.275453
0.274172
0.274172
0.278015
0.275453
0.275453
0.275453
0.275453
0.275453
0.275453
0.275453
0.276734
0.276734
0.275453
0.275453
0.278015
0.275453
0.278015
0.276734
0.278015
0.278015
0.276734
0.276734
0.276734
0.278015
0.278015
0.279297
0.278015
0.278015
0.278015
0.278015
0.278015
0.278015
0.276734
0.278015
0.276734
0.279297
0.279297
0.276734
0.278015
0.278015
0.276734
0.276734
0.278015
0.283140
0.278015
0.278015
0.278015
0.280578
0.278015
0.278015
0.279297
0.278015
0.278015
0.278015
0.279297
0.279297
0.278015
0.278015
0.280578
0.279297
0.279297
0.271609
0.266485
0.263922
0.263922
0.263922
0.262641
0.262641
0.260079
0.261360
0.260079
0.260079
0.261360
0.261360
0.258798
0.326700
0.269047
0.370260
0.276734
0.265204
0.262641
0.260079
0.261360
0.254954
0.258798
0.257517
0.256235
0.256235
0.257517
0.254954
0.256235
0.256235
0.256235
0.254954
0.253673
0.254954
0.254954
0.254954
0.254954
0.253673
0.254954
0.253673
0.254954
0.274172
0.257517
0.269047
0.248548
0.245986
0.248548
0.253673
0.249829
0.256235
0.257517
0.257517
0.260079
0.266485
0.267766
0.267766
0.272891
0.269047
0.269047
0.266485
0.267766
0.267766
0.266485
0.267766
0.269047
0.267766
0.269047
0.267766
0.270328
0.269047
0.267766
0.269047
0.269047
0.270328
0.270328
0.269047
0.269047
0.269047
0.275453
0.267766
0.275453
0.269047
0.269047
0.267766
0.271609
0.271609
0.270328
0.271609
0.271609
0.270328
0.272891
0.271609
0.272891
0.271609
0.272891
0.271609
0.271609
0.274172
0.271609
0.271609
0.275453
0.272891
0.274172
0.272891
0.271609
0.271609
0.278015
0.271609
0.271609
0.271609
0.274172
0.274172
0.271609
0.272891
0.274172
0.272891
0.274172
0.274172
0.275453
0.274172
0.275453
0.274172
0.275453
0.281859
0.274172
0.274172
0.275453
0.275453
0.276734
0.275453
0.275453
0.275453
0.275453
0.275453
0.276734
0.276734
0.276734
0.276734
0.276734
0.283140
0.284421
0.286984
0.288265
0.285702
0.284421
0.284421
0.285702
0.284421
0.285702
0.284421
0.285702
0.284421
0.284421
0.285702
0.285702
0.285702
0.285702
0.285702
0.286984
0.286984
0.286984
0.286984
0.292108
0.285702
0.286984
0.286984
0.286984
0.285702
0.286984
0.286984
0.288265
0.286984
0.289546
0.288265
0.288265
0.288265
0.288265
0.286984
0.290827
0.295952
0.299795
0.289546
0.290827
0.292108
0.292108
0.292108
0.290827
0.290827
0.289546
0.293389
0.293389
0.293389
0.293389
0.293389
0.294671
0.294671
0.294671
0.294671
0.294671
0.294671
0.292108
0.295952
0.295952
0.302358
0.299795
0.302358
0.293389
0.295952
0.294671
0.295952
0.301077
0.301077
0.294671
0.295952
0.297233
0.303639
0.297233
0.297233
0.297233
0.297233
0.297233
0.297233
0.297233
0.297233
0.295952
0.298514
0.298514
0.297233
0.297233
0.297233
0.299795
0.295952
0.298514
0.298514
0.304920
0.298514
0.299795
0.299795
0.301077
0.302358
0.299795
0.299795
0.301077
0.299795
0.301077
0.299795
0.301077
0.306201
0.301077
0.302358
0.301077
0.301077
0.301077
0.301077
0.302358
0.302358
0.302358
0.302358
0.302358
0.302358
0.307482
0.302358
0.304920
0.304920
0.304920
0.310045
0.303639
0.303639
0.303639
0.304920
0.304920
0.306201
0.303639
0.304920
0.304920
0.304920
0.303639
0.304920
0.303639
0.304920
0.303639
0.306201
0.306201
0.311326
0.306201
0.306201
0.304920
0.310045
0.306201
0.306201
0.304920
0.304920
0.304920
0.304920
0.303639
0.304920
0.304920
0.306201
0.307482
0.307482
0.308764
0.308764
0.308764
0.307482
0.310045
0.307482
0.311326
0.306201
0.308764
0.307482
0.307482
0.307482
0.307482
0.310045
0.310045
0.310045
0.313888
0.307482
0.308764
0.310045
0.307482
0.306201
0.308764
0.308764
0.306201
0.308764
0.306201
0.303639
0.310045
0.302358
0.303639
0.301077
0.303639
0.301077
0.299795
0.301077
0.307482
0.313888
0.303639
0.320294
0.326700
0.320294
0.317732
0.316451
0.319013
0.319013
0.317732
0.319013
0.321575
0.321575
0.321575
0.322857
0.324138
0.325419
0.329262
0.327981
0.322857
0.320294
0.320294
0.326700
0.324138
0.312607
0.315169
0.312607
0.315169
0.315169
0.316451
0.316451
0.317732
0.319013
0.320294
0.320294
0.324138
0.324138
0.324138
0.321575
0.329262
0.322857
0.324138
0.322857
0.326700
0.330544
0.330544
0.330544
0.330544
0.330544
0.330544
0.331825
0.330544
0.330544
0.330544
0.331825
0.330544
0.331825
0.334387
0.335668
0.335668
0.334387
0.338231
0.335668
0.335668
0.334387
0.334387
0.334387
0.333106
0.339512
0.335668
0.333106
0.334387
0.335668
0.334387
0.334387
0.334387
0.333106
0.336949
0.335668
0.336949
0.335668
0.334387
0.335668
0.340793
0.338231
0.342074
0.336949
0.335668
0.338231
0.336949
0.338231
0.336949
0.336949
0.335668
0.336949
0.338231
0.336949
0.338231
0.338231
0.344637
0.336949
0.339512
0.339512
0.339512
0.339512
0.339512
0.338231
0.338231
0.340793
0.339512
0.340793
0.340793
0.340793
0.340793
0.339512
0.339512
0.340793
0.340793
0.339512
0.340793
0.342074
0.342074
0.340793
0.342074
0.342074
0.340793
0.340793
0.340793
0.340793
0.340793
0.340793
0.339512
0.342074
0.339512
0.339512
0.339512
0.339512
0.339512
0.339512
0.338231
0.338231
0.339512
0.338231
0.339512
0.344637
0.338231
0.340793
0.339512
0.339512
0.340793
0.340793
0.340793
0.339512
0.340793
0.340793
0.338231
0.331825
0.324138
0.321575
0.320294
0.333106
0.333106
0.334387
0.336949
0.335668
0.342074
0.349761
0.340793
0.336949
0.335668
0.335668
0.336949
0.343355
0.336949
0.336949
0.336949
0.334387
0.331825
0.322857
0.325419
0.331825
0.329262
0.330544
0.330544
0.329262
0.335668
0.330544
0.329262
0.330544
0.330544
0.330544
0.329262
0.329262
0.330544
0.329262
0.331825
0.331825
0.330544
0.331825
0.330544
0.331825
0.331825
0.330544
0.330544
0.330544
0.333106
0.331825
0.333106
0.334387
0.333106
0.331825
0.333106
0.333106
0.333106
0.334387
0.333106
0.333106
0.330544
0.333106
0.333106
0.333106
0.334387
0.339512
0.333106
0.334387
0.334387
0.334387
0.334387
0.334387
0.334387
0.334387
0.336949
0.343355
0.336949
0.335668
0.336949
0.334387
0.335668
0.336949
0.336949
0.342074
0.342074
0.338231
0.340793
0.338231
0.336949
0.338231
0.338231
0.338231
0.338231
0.339512
0.343355
0.339512
0.339512
0.335668
0.336949
0.339512
0.339512
0.339512
0.339512
0.339512
0.339512
0.347199
0.344637
0.340793
0.339512
0.340793
0.340793
0.345918
0.340793
0.339512
0.339512
0.340793
0.342074
0.339512
0.342074
0.340793
0.340793
0.342074
0.342074
0.340793
0.340793
0.347199
0.340793
0.343355
0.342074
0.342074
0.342074
0.342074
0.342074
0.343355
0.342074
0.349761
0.342074
0.342074
0.340793
0.343355
0.344637
0.344637
0.343355
0.342074
0.344637
0.342074
0.343355
0.343355
0.349761
0.349761
0.343355
0.344637
0.351042
0.344637
0.343355
0.343355
0.344637
0.344637
0.345918
0.345918
0.344637
0.344637
0.347199
0.345918
0.347199
0.345918
0.349761
0.343355
0.347199
0.345918
0.347199
0.345918
0.345918
0.347199
0.347199
0.347199
0.347199
0.352324
0.347199
0.344637
0.347199
0.345918
0.345918
0.345918
0.347199
0.348480
0.347199
0.347199
0.345918
0.345918
0.345918
0.345918
0.344637
0.348480
0.347199
0.348480
0.345918
0.347199
0.348480
0.353605
0.347199
0.347199
0.347199
0.348480
0.349761
0.349761
0.349761
0.348480
0.354886
0.348480
0.349761
0.349761
0.348480
0.348480
0.349761
0.349761
0.348480
0.351042
0.349761
0.347199
0.351042
0.349761
0.356167
0.349761
0.351042
0.349761
0.348480
0.351042
0.351042
0.351042
0.358729
0.352324
0.352324
0.352324
0.351042
0.351042
0.357448
0.353605
0.353605
0.353605
0.358729
0.352324
0.352324
0.353605
0.352324
0.353605
0.357448
0.352324
0.354886
0.351042
0.354886
0.353605
0.354886
0.353605
0.352324
0.354886
0.354886
0.353605
0.353605
0.356167
0.356167
0.354886
0.354886
0.353605
0.354886
0.354886
0.354886
0.354886
0.362573
0.361292
0.356167
0.357448
0.357448
0.357448
0.356167
0.356167
0.353605
0.356167
0.356167
0.357448
0.356167
0.356167
0.358729
0.358729
0.356167
0.356167
0.356167
0.362573
0.357448
0.357448
0.358729
0.357448
0.357448
0.358729
0.360011
0.357448
0.357448
0.358729
0.360011
0.358729
0.360011
0.360011
0.360011
0.366417
0.358729
0.361292
0.360011
0.358729
0.360011
0.360011
0.360011
0.361292
0.366417
0.360011
0.360011
0.360011
0.361292
0.361292
0.361292
0.360011
0.361292
0.360011
0.362573
0.361292
0.367698
0.367698
0.365135
0.362573
0.362573
0.362573
0.363854
0.362573
0.361292
0.362573
0.363854
0.368979
0.362573
0.362573
0.363854
0.363854
0.363854
0.363854
0.362573
0.361292
0.363854
0.362573
0.362573
0.362573
0.363854
0.365135
0.365135
0.365135
0.366417
0.371541
0.371541
0.365135
0.366417
0.362573
0.365135
0.365135
0.367698
0.363854
0.367698
0.367698
0.366417
0.366417
0.367698
0.366417
0.368979
0.367698
0.367698
0.368979
0.374104
0.370260
0.367698
0.368979
0.368979
0.368979
0.376666
0.368979
0.370260
0.368979
0.371541
0.368979
0.375385
0.367698
0.370260
0.370260
0.370260
0.370260
0.370260
0.370260
0.371541
0.372822
0.370260
0.377947
0.371541
0.371541
0.371541
0.372822
0.371541
0.371541
0.371541
0.368979
0.371541
0.371541
0.376666
0.372822
0.371541
0.371541
0.374104
0.371541
0.372822
0.372822
0.371541
0.374104
0.374104
0.372822
0.374104
0.372822
0.371541
0.372822
0.375385
0.372822
0.375385
0.372822
0.374104
0.374104
0.375385
0.375385
0.374104
0.380509
0.377947
0.374104
0.375385
0.374104
0.375385
0.375385
0.375385
0.376666
0.376666
0.375385
0.375385
0.376666
0.376666
0.374104
0.376666
0.375385
0.377947
0.374104
0.377947
0.377947
0.376666
0.376666
0.377947
0.383072
0.377947
0.377947
0.379228
0.379228
0.377947
0.379228
0.379228
0.377947
0.377947
0.377947
0.379228
0.379228
0.379228
0.379228
0.385634
0.379228
0.379228
0.380509
0.380509
0.385634
0.379228
0.379228
0.380509
0.380509
0.381791
0.381791
0.380509
0.385634
0.381791
0.380509
0.384353
0.380509
0.381791
0.385634
0.383072
0.383072
0.383072
0.381791
0.381791
0.383072
0.383072
0.381791
0.383072
0.383072
0.383072
0.384353
0.384353
0.383072
0.383072
0.383072
0.384353
0.384353
0.384353
0.392040
0.384353
0.384353
0.385634
0.384353
0.386915
0.385634
0.385634
0.384353
0.386915
0.385634
0.392040
0.384353
0.385634
0.385634
0.386915
0.386915
0.386915
0.385634
0.385634
0.386915
0.386915
0.386915
0.386915
0.386915
0.388197
0.388197
0.389478
0.386915
0.388197
0.388197
0.388197
0.386915
0.388197
0.388197
0.388197
0.392040
0.390759
0.390759
0.389478
0.389478
0.390759
0.390759
0.390759
0.388197
0.392040
0.390759
0.390759
0.392040
0.390759
0.392040
0.392040
0.392040
0.390759
0.392040
0.392040
0.392040
0.397165
0.392040
0.393321
0.393321
0.392040
0.392040
0.392040
0.390759
0.392040
0.394602
0.393321
0.393321
0.393321
0.394602
0.394602
0.394602
0.393321
0.395884
0.394602
0.393321
0.395884
0.394602
0.401008
0.394602
0.395884
0.395884
0.395884
0.402290
0.395884
0.401008
0.395884
0.394602
0.394602
0.394602
0.394602
0.394602
0.397165
0.403571
0.395884
0.395884
0.399727
0.395884
0.397165
0.402290
0.399727
0.397165
0.397165
0.398446
0.398446
0.398446
0.398446
0.397165
0.397165
0.398446
0.398446
0.398446
0.399727
0.399727
0.406133
0.398446
0.399727
0.402290
0.401008
0.398446
0.399727
0.399727
0.398446
0.399727
0.402290
0.402290
0.401008
0.399727
0.402290
0.402290
0.401008
0.401008
0.401008
0.398446
0.402290
0.399727
0.407414
0.402290
0.402290
0.401008
0.402290
0.403571
0.402290
0.408695
0.403571
0.403571
0.403571
0.404852
0.403571
0.404852
0.404852
0.403571
0.403571
0.403571
0.403571
0.403571
0.402290
0.403571
0.406133
0.403571
0.404852
0.406133
0.404852
0.404852
0.404852
0.408695
0.406133
0.404852
0.406133
0.406133
0.404852
0.404852
0.406133
0.404852
0.404852
0.411258
0.403571
0.406133
0.406133
0.406133
0.407414
0.406133
0.406133
0.406133
0.407414
0.407414
0.413820
0.404852
0.408695
0.407414
0.412539
0.415101
0.404852
0.408695
0.408695
0.408695
0.407414
0.407414
0.407414
0.407414
0.407414
0.407414
0.416382
0.408695
0.408695
0.409977
0.408695
0.408695
0.408695
0.409977
0.411258
0.408695
0.409977
0.411258
0.409977
0.411258
0.416382
0.411258
0.411258
0.411258
0.412539
0.411258
0.413820
0.412539
0.413820
0.411258
0.412539
0.411258
0.412539
0.413820
0.412539
0.412539
0.411258
0.412539
0.412539
0.415101
0.412539
0.411258
0.415101
0.413820
0.413820
0.415101
0.413820
0.413820
0.416382
0.416382
0.415101
0.415101
0.415101
0.413820
0.416382
0.415101
0.415101
0.415101
0.424069
0.416382
0.415101
0.416382
0.417664
0.416382
0.416382
0.415101
0.416382
0.416382
0.416382
0.417664
0.416382
0.416382
0.418945
0.417664
0.417664
0.418945
0.417664
0.417664
0.418945
0.426632
0.425351
0.420226
0.420226
0.420226
0.420226
0.418945
0.418945
0.418945
0.418945
0.420226
0.420226
0.427913
0.421507
0.420226
0.421507
0.420226
0.421507
0.420226
0.420226
0.418945
0.426632
0.422788
0.421507
0.421507
0.421507
0.424069
0.424069
0.422788
0.424069
0.422788
0.421507
0.424069
0.425351
0.431757
0.430475
0.430475
0.426632
0.425351
0.425351
0.422788
0.424069
0.424069
0.426632
0.425351
0.426632
0.425351
0.425351
0.427913
0.426632
0.427913
0.425351
0.434319
0.425351
0.424069
0.426632
0.425351
0.431757
0.433038
0.427913
0.425351
0.426632
0.425351
0.425351
0.426632
0.425351
0.427913
0.427913
0.435600
0.427913
0.429194
0.427913
0.426632
0.429194
0.427913
0.427913
0.427913
0.429194
0.429194
0.429194
0.427913
0.430475
0.429194
0.430475
0.430475
0.429194
0.435600
0.427913
0.429194
0.430475
0.430475
0.429194
0.430475
0.430475
0.430475
0.429194
0.429194
0.429194
0.427913
0.430475
0.429194
0.434319
0.431757
0.430475
0.430475
0.431757
0.430475
0.431757
0.429194
0.431757
0.431757
0.430475
0.431757
0.431757
0.433038
0.433038
0.433038
0.431757
0.433038
0.433038
0.434319
0.434319
0.434319
0.433038
0.431757
0.434319
0.434319
0.433038
0.433038
0.433038
0.433038
0.433038
0.434319
0.435600
0.434319
0.435600
0.435600
0.435600
0.434319
0.436881
0.434319
0.434319
0.436881
0.434319
0.435600
0.442006
0.434319
0.436881
0.434319
0.435600
0.436881
0.440725
0.434319
0.438162
0.435600
0.436881
0.436881
0.436881
0.438162
0.436881
0.435600
0.436881
0.438162
0.436881
0.435600
0.438162
0.436881
0.444568
0.435600
0.439444
0.436881
0.443287
0.436881
0.435600
0.438162
0.439444
0.438162
0.438162
0.438162
0.435600
0.435600
0.442006
0.438162
0.434319
0.430475
0.427913
0.426632
0.425351
0.425351
0.424069
0.424069
0.425351
0.425351
0.421507
0.421507
0.418945
0.416382
0.416382
0.416382
0.416382
0.415101
0.415101
0.416382
0.413820
0.420226
0.411258
0.413820
0.412539
0.413820
0.411258
0.411258
0.412539
0.411258
0.412539
0.411258
0.412539
0.409977
0.411258
0.409977
0.409977
0.408695
0.408695
0.411258
0.408695
0.412539
0.408695
0.411258
0.409977
0.408695
0.409977
0.408695
0.415101
0.408695
0.409977
0.415101
0.409977
0.408695
0.409977
0.409977
0.408695
0.408695
0.407414
0.409977
0.408695
0.406133
0.407414
0.408695
0.408695
0.408695
0.408695
0.408695
0.407414
0.407414
0.408695
0.408695
0.407414
0.407414
0.408695
0.407414
0.408695
0.407414
0.411258
0.408695
0.407414
0.408695
0.408695
0.407414
0.407414
0.408695
0.407414
0.407414
0.407414
0.406133
0.406133
0.408695
0.408695
0.407414
0.407414
0.407414
0.408695
0.408695
0.408695
0.407414
0.406133
0.406133
0.408695
0.406133
0.407414
0.407414
0.407414
0.408695
0.407414
0.407414
0.407414
0.408695
0.411258
0.406133
0.407414
0.407414
0.408695
0.407414
0.408695
0.408695
0.407414
0.408695
0.413820
0.406133
0.408695
0.407414
0.407414
0.408695
0.408695
0.408695
0.406133
0.407414
0.407414
0.407414
0.406133
0.407414
0.412539
0.408695
0.413820
0.404852
0.408695
0.407414
0.407414
0.407414
0.407414
0.406133
0.408695
0.407414
0.407414
0.413820
0.408695
0.408695
0.408695
0.408695
0.407414
0.409977
0.407414
0.408695
0.413820
0.407414
0.413820
0.407414
0.409977
0.407414
0.408695
0.407414
0.408695
0.408695
0.408695
0.415101
0.413820
0.409977
0.409977
0.408695
0.407414
0.408695
0.408695
0.408695
0.407414
0.408695
0.407414
0.407414
0.408695
0.408695
0.408695
0.407414
0.407414
0.408695
0.408695
0.408695
0.408695
0.406133
0.407414
0.406133
0.406133
0.408695
0.408695
0.407414
0.407414
0.407414
0.407414
0.407414
0.407414
0.408695
0.406133
0.407414
0.409977
0.426632
0.436881
0.436881
0.445850
0.442006
0.438162
0.436881
0.435600
0.434319
0.433038
0.443287
0.433038
0.434319
0.431757
0.431757
0.431757
0.438162
0.430475
0.431757
0.431757
0.431757
0.433038
0.431757
0.433038
0.431757
0.431757
0.433038
0.433038
0.433038
0.433038
0.433038
0.436881
0.434319
0.434319
0.433038
0.433038
0.433038
0.431757
0.433038
0.434319
0.433038
0.434319
0.434319
0.435600
0.434319
0.434319
0.434319
0.434319
0.434319
0.433038
0.434319
0.433038
0.440725
0.431757
0.435600
0.435600
0.434319
0.434319
0.434319
0.434319
0.436881
0.435600
0.435600
0.434319
0.434319
0.436881
0.436881
0.435600
0.435600
0.436881
0.434319
0.443287
0.435600
0.435600
0.438162
0.436881
0.438162
0.438162
0.438162
0.438162
0.440725
0.438162
0.433038
0.434319
0.438162
0.449693
0.431757
0.429194
0.427913
0.431757
0.431757
0.430475
0.430475
0.430475
0.430475
0.429194
0.431757
0.429194
0.430475
0.430475
0.430475
0.429194
0.429194
0.431757
0.430475
0.430475
0.438162
0.433038
0.433038
0.440725
0.433038
0.436881
0.434319
0.434319
0.430475
0.439444
0.433038
0.430475
0.431757
0.434319
0.434319
0.433038
0.433038
0.434319
0.434319
0.433038
0.434319
0.433038
0.442006
0.435600
0.434319
0.436881
0.434319
0.434319
0.434319
0.435600
0.434319
0.434319
0.434319
0.434319
0.435600
0.435600
0.436881
0.434319
0.436881
0.436881
0.434319
0.442006
0.435600
0.435600
0.433038
0.436881
0.439444
0.439444
0.436881
0.435600
0.438162
0.439444
0.436881
0.440725
0.439444
0.444568
0.435600
0.436881
0.436881
0.438162
0.436881
0.435600
0.436881
0.435600
0.440725
0.435600
0.440725
0.435600
0.434319
0.436881
0.434319
0.434319
0.434319
0.435600
0.440725
0.435600
0.434319
0.435600
0.433038
0.434319
0.435600
0.434319
0.434319
0.435600
0.434319
0.438162
0.434319
0.433038
0.434319
0.434319
0.433038
0.435600
0.434319
0.434319
0.435600
0.435600
0.434319
0.436881
0.434319
0.435600
0.435600
0.434319
0.435600
0.434319
0.435600
0.435600
0.434319
0.435600
0.435600
0.434319
0.435600
0.434319
0.443287
0.443287
0.434319
0.435600
0.435600
0.443287
0.436881
0.436881
0.435600
0.435600
0.435600
0.435600
0.436881
0.434319
0.435600
0.434319
0.435600
0.442006
0.440725
0.435600
0.434319
0.434319
0.440725
0.436881
0.435600
0.435600
0.436881
0.435600
0.436881
0.436881
0.436881
0.435600
0.435600
0.435600
0.443287
0.436881
0.435600
0.435600
0.436881
0.436881
0.435600
0.438162
0.438162
0.436881
0.436881
0.438162
0.438162
0.438162
0.438162
0.436881
0.438162
0.439444
0.439444
0.442006
0.438162
0.438162
0.439444
0.439444
0.439444
0.438162
0.438162
0.444568
0.436881
0.438162
0.435600
0.444568
0.443287
0.438162
0.436881
0.439444
0.436881
0.438162
0.436881
0.438162
0.438162
0.438162
0.438162
0.438162
0.439444
0.439444
0.438162
0.438162
0.438162
0.436881
0.435600
0.439444
0.438162
0.444568
0.444568
0.439444
0.439444
0.439444
0.439444
0.439444
0.439444
0.438162
0.439444
0.442006
0.447131
0.439444
0.440725
0.440725
0.439444
0.439444
0.440725
0.442006
0.444568
0.443287
0.450974
0.434319
0.425351
0.427913
0.429194
0.429194
0.434319
0.438162
0.436881
0.438162
0.438162
0.438162
0.438162
0.439444
0.447131
0.438162
0.438162
0.436881
0.439444
0.438162
0.440725
0.439444
0.438162
0.439444
0.436881
0.444568
0.438162
0.439444
0.439444
0.439444
0.439444
0.439444
0.439444
0.440725
0.440725
0.442006
0.440725
0.439444
0.439444
0.442006
0.440725
0.440725
0.442006
0.439444
0.440725
0.442006
0.440725
0.442006
0.440725
0.440725
0.443287
0.443287
0.442006
0.440725
0.440725
0.442006
0.440725
0.442006
0.443287
0.440725
0.440725
0.443287
0.447131
0.442006
0.442006
0.440725
0.443287
0.443287
0.444568
0.445850
0.443287
0.444568
0.443287
0.444568
0.443287
0.443287
0.445850
0.442006
0.443287
0.445850
0.445850
0.443287
0.443287
0.444568
0.444568
0.449693
0.443287
0.443287
0.443287
0.443287
0.450974
0.445850
0.442006
0.445850
0.445850
0.443287
0.444568
0.443287
0.445850
0.445850
0.449693
0.449693
0.449693
0.449693
0.447131
0.456099
0.454818
0.453537
0.440725
0.444568
0.447131
0.448412
0.450974
0.450974
0.445850
0.445850
0.440725
0.445850
0.447131
0.447131
0.445850
0.447131
0.445850
0.445850
0.449693
0.447131
0.448412
0.448412
0.447131
0.448412
0.447131
0.447131
0.447131
0.454818
0.448412
0.449693
0.448412
0.450974
0.450974
0.449693
0.450974
0.452255
0.449693
0.452255
0.450974
0.450974
0.450974
0.452255
0.450974
0.452255
0.452255
0.449693
0.452255
0.453537
0.453537
0.453537
0.452255
0.453537
0.453537
0.454818
0.453537
0.457380
0.461224
0.457380
0.456099
0.456099
0.454818
0.454818
0.456099
0.457380
0.454818
0.450974
0.442006
0.440725
0.444568
0.440725
0.438162
0.444568
0.436881
0.435600
0.431757
0.439444
0.431757
0.431757
0.429194
0.435600
0.436881
0.431757
0.430475
0.430475
0.430475
0.426632
0.426632
0.426632
0.426632
0.425351
0.424069
0.424069
0.425351
0.425351
0.424069
0.422788
0.424069
0.429194
0.420226
0.424069
0.422788
0.421507
0.421507
0.421507
0.422788
0.421507
0.427913
0.431757
0.450974
0.445850
0.448412
0.456099
0.450974
0.450974
0.453537
0.452255
0.448412
0.452255
0.449693
0.449693
0.450974
0.450974
0.452255
0.450974
0.450974
0.453537
0.450974
0.452255
0.461224
0.452255
0.452255
0.453537
0.453537
0.452255
0.453537
0.450974
0.453537
0.452255
0.453537
0.453537
0.452255
0.454818
0.450974
0.453537
0.454818
0.453537
0.454818
0.454818
0.454818
0.454818
0.454818
0.454818
0.456099
0.456099
0.454818
0.452255
0.453537
0.458661
0.450974
0.456099
0.450974
0.449693
0.448412
0.447131
0.448412
0.450974
0.452255
0.454818
0.450974
0.449693
0.447131
0.443287
0.439444
0.434319
0.438162
0.444568
0.453537
0.453537
0.456099
0.456099
0.453537
0.456099
0.454818
0.462505
0.456099
0.454818
0.457380
0.454818
0.453537
0.457380
0.456099
0.456099
0.456099
0.454818
0.458661
0.457380
0.458661
0.456099
0.454818
0.456099
0.457380
0.456099
0.456099
0.454818
0.456099
0.458661
0.458661
0.456099
0.456099
0.458661
0.456099
0.457380
0.465067
0.457380
0.457380
0.458661
0.458661
0.457380
0.458661
0.456099
0.458661
0.457380
0.466348
0.458661
0.459942
0.457380
0.456099
0.467630
0.458661
0.461224
0.458661
0.461224
0.459942
0.459942
0.458661
0.459942
0.461224
0.462505
0.463786
0.467630
0.463786
0.463786
0.462505
0.463786
0.461224
0.459942
0.459942
0.463786
0.461224
0.461224
0.459942
0.461224
0.459942
0.467630
0.458661
0.462505
0.461224
0.461224
0.461224
0.459942
0.456099
0.454818
0.450974
0.452255
0.450974
0.448412
0.448412
0.447131
0.453537
0.456099
0.458661
0.457380
0.454818
0.447131
0.447131
0.444568
0.447131
0.445850
0.445850
0.447131
0.445850
0.445850
0.448412
0.445850
0.447131
0.445850
0.445850
0.445850
0.447131
0.447131
0.448412
0.445850
0.452255
0.448412
0.447131
0.447131
0.445850
0.445850
0.453537
0.459942
0.462505
0.458661
0.456099
0.459942
0.459942
0.462505
0.461224
0.458661
0.459942
0.458661
0.458661
0.458661
0.461224
0.461224
0.462505
0.462505
0.458661
0.458661
0.454818
0.467630
0.454818
0.454818
0.458661
0.458661
0.463786
0.456099
0.465067
0.456099
0.462505
0.454818
0.454818
0.452255
0.454818
0.453537
0.454818
0.453537
0.456099
0.456099
0.456099
0.456099
0.454818
0.454818
0.453537
0.453537
0.454818
0.454818
0.454818
0.456099
0.463786
0.456099
0.457380
0.456099
0.461224
0.454818
0.454818
0.454818
0.456099
0.463786
0.456099
0.457380
0.457380
0.457380
0.454818
0.456099
0.458661
0.457380
0.457380
0.458661
0.457380
0.465067
0.456099
0.461224
0.459942
0.465067
0.472754
0.462505
0.466348
0.465067
0.465067
0.466348
0.466348
0.468911
0.475317
0.468911
0.470192
0.467630
0.459942
0.462505
0.459942
0.458661
0.465067
0.462505
0.459942
0.459942
0.459942
0.463786
0.461224
0.461224
0.463786
0.466348
0.459942
0.462505
0.465067
0.467630
0.466348
0.468911
0.466348
0.461224
0.465067
0.467630
0.471473
0.470192
0.470192
0.470192
0.470192
0.471473
0.472754
0.472754
0.471473
0.471473
0.472754
0.472754
0.472754
0.472754
0.471473
0.474035
0.472754
0.474035
0.475317
0.475317
0.474035
0.474035
0.481722
0.474035
0.474035
0.475317
0.476598
0.474035
0.471473
0.475317
0.474035
0.476598
0.475317
0.474035
0.476598
0.475317
0.477879
0.477879
0.475317
0.476598
0.474035
0.476598
0.475317
0.475317
0.475317
0.474035
0.474035
0.474035
0.475317
0.475317
0.475317
0.474035
0.474035
0.475317
0.476598
0.475317
0.475317
0.481722
0.476598
0.475317
0.476598
0.483004
0.475317
0.475317
0.474035
0.476598
0.476598
0.474035
0.475317
0.483004
0.477879
0.476598
0.476598
0.476598
0.477879
0.477879
0.476598
0.476598
0.479160
0.477879
0.485566
0.477879
0.479160
0.479160
0.477879
0.479160
0.476598
0.477879
0.483004
0.479160
0.479160
0.479160
0.480441
0.479160
0.479160
0.479160
0.479160
0.479160
0.480441
0.480441
0.479160
0.480441
0.480441
0.481722
0.488128
0.479160
0.481722
0.481722
0.486847
0.480441
0.479160
0.481722
0.480441
0.480441
0.481722
0.480441
0.480441
0.480441
0.479160
0.477879
0.479160
0.481722
0.474035
0.480441
0.468911
0.474035
0.476598
0.467630
0.467630
0.465067
0.465067
0.465067
0.463786
0.463786
0.472754
0.467630
0.475317
0.475317
0.475317
0.476598
0.477879
0.479160
0.479160
0.485566
0.480441
0.481722
0.481722
0.484285
0.483004
0.490691
0.484285
0.484285
0.490691
0.485566
0.483004
0.484285
0.484285
0.483004
0.485566
0.485566
0.485566
0.484285
0.483004
0.484285
0.484285
0.484285
0.485566
0.484285
0.484285
0.488128
0.485566
0.485566
0.484285
0.486847
0.485566
0.485566
0.484285
0.484285
0.485566
0.491972
0.485566
0.483004
0.485566
0.484285
0.484285
0.491972
0.489410
0.489410
0.486847
0.488128
0.485566
0.484285
0.485566
0.484285
0.485566
0.491972
0.483004
0.485566
0.484285
0.484285
0.481722
0.485566
0.484285
0.484285
0.484285
0.485566
0.485566
0.491972
0.485566
0.484285
0.486847
0.491972
0.491972
0.489410
0.486847
0.489410
0.486847
0.488128
0.495815
0.489410
0.486847
0.486847
0.489410
0.486847
0.488128
0.488128
0.489410
0.486847
0.486847
0.493253
0.489410
0.488128
0.488128
0.489410
0.489410
0.488128
0.488128
0.486847
0.489410
0.489410
0.488128
0.488128
0.485566
0.489410
0.488128
0.488128
0.490691
0.489410
0.488128
0.489410
0.489410
0.489410
0.488128
0.491972
0.497097
0.490691
0.489410
0.490691
0.489410
0.491972
0.489410
0.498378
0.490691
0.490691
0.490691
0.493253
0.489410
0.491972
0.494534
0.490691
0.495815
0.491972
0.489410
0.493253
0.490691
0.489410
0.489410
0.490691
0.490691
0.493253
0.490691
0.490691
0.491972
0.490691
0.489410
0.491972
0.493253
0.493253
0.491972
0.490691
0.493253
0.490691
0.493253
0.491972
0.490691
0.491972
0.490691
0.491972
0.494534
0.493253
0.491972
0.494534
0.494534
0.490691
0.493253
0.493253
0.495815
0.497097
0.495815
0.504784
0.498378
0.504784
0.498378
0.495815
0.498378
0.498378
0.497097
0.498378
0.497097
0.498378
0.497097
0.498378
0.499659
0.499659
0.497097
0.498378
0.497097
0.498378
0.498378
0.498378
0.499659
0.498378
0.500940
0.500940
0.500940
0.498378
0.499659
0.499659
0.506065
0.499659
0.499659
0.500940
0.500940
0.507346
0.497097
0.500940
0.500940
0.502221
0.499659
0.499659
0.498378
0.500940
0.502221
0.507346
0.499659
0.502221
0.502221
0.500940
0.500940
0.500940
0.498378
0.500940
0.504784
0.511190
0.517595
0.508627
0.500940
0.499659
0.502221
0.500940
0.495815
0.499659
0.497097
0.497097
0.493253
0.497097
0.486847
0.490691
0.486847
0.486847
0.488128
0.488128
0.493253
0.491972
0.491972
0.491972
0.495815
0.502221
0.503502
0.512471
0.503502
0.506065
0.504784
0.507346
0.506065
0.507346
0.508627
0.507346
0.508627
0.508627
0.512471
0.513752
0.512471
0.512471
0.509908
0.511190
0.509908
0.516314
0.509908
0.511190
0.511190
0.513752
0.511190
0.512471
0.511190
0.513752
0.512471
0.503502
0.503502
0.503502
0.502221
0.502221
0.504784
0.500940
0.502221
0.503502
0.502221
0.502221
0.506065
0.503502
0.503502
0.503502
0.509908
0.509908
0.502221
0.502221
0.502221
0.502221
0.499659
0.500940
0.500940
0.502221
0.502221
0.502221
0.502221
0.502221
0.500940
0.502221
0.502221
0.506065
0.502221
0.503502
0.502221
0.502221
0.503502
0.503502
0.502221
0.503502
0.503502
0.502221
0.502221
0.504784
0.503502
0.506065
0.503502
0.506065
0.506065
0.504784
0.504784
0.509908
0.502221
0.504784
0.504784
0.504784
0.504784
0.511190
0.503502
0.506065
0.512471
0.504784
0.504784
0.506065
0.504784
0.506065
0.504784
0.504784
0.506065
0.506065
0.506065
0.506065
0.506065
0.504784
0.507346
0.506065
0.506065
0.504784
0.504784
0.506065
0.507346
0.508627
0.508627
0.509908
0.507346
0.508627
0.507346
0.509908
0.508627
0.507346
0.507346
0.508627
0.507346
0.507346
0.507346
0.504784
0.507346
0.507346
0.507346
0.507346
0.506065
0.507346
0.499659
0.500940
0.498378
0.497097
0.497097
0.495815
0.497097
0.502221
0.494534
0.493253
0.494534
0.493253
0.493253
0.491972
0.491972
0.493253
0.490691
0.491972
0.494534
0.493253
0.491972
0.493253
0.491972
0.494534
0.491972
0.493253
0.494534
0.491972
0.491972
0.497097
0.498378
0.495815
0.491972
0.493253
0.494534
0.493253
0.491972
0.493253
0.494534
0.494534
0.500940
0.493253
0.500940
0.493253
0.494534
0.494534
0.494534
0.493253
0.495815
0.495815
0.494534
0.493253
0.499659
0.494534
0.493253
0.499659
0.495815
0.493253
0.494534
0.493253
0.490691
0.489410
0.495815
0.494534
0.494534
0.490691
0.494534
0.493253
0.493253
0.493253
0.493253
0.494534
0.500940
0.495815
0.494534
0.493253
0.498378
0.491972
0.495815
0.494534
0.491972
0.494534
0.495815
0.494534
0.494534
0.494534
0.493253
0.494534
0.500940
0.503502
0.494534
0.491972
0.494534
0.493253
0.490691
0.488128
0.488128
0.490691
0.486847
0.479160
0.483004
0.491972
0.489410
0.493253
0.498378
0.491972
0.490691
0.489410
0.493253
0.502221
0.493253
0.494534
0.494534
0.497097
0.497097
0.493253
0.493253
0.495815
0.493253
0.495815
0.494534
0.497097
0.497097
0.495815
0.491972
0.495815
0.494534
0.500940
0.493253
0.494534
0.495815
0.494534
0.494534
0.497097
0.494534
0.497097
0.497097
0.493253
0.490691
0.491972
0.489410
0.489410
0.493253
0.494534
0.491972
0.490691
0.491972
0.493253
0.491972
0.489410
0.493253
0.494534
0.493253
0.493253
0.490691
0.494534
0.489410
0.499659
0.491972
0.493253
0.490691
0.493253
0.491972
0.491972
0.498378
0.493253
0.491972
0.490691
0.491972
0.490691
0.493253
0.498378
0.491972
0.491972
0.498378
0.493253
0.499659
0.494534
0.494534
0.494534
0.493253
0.499659
0.502221
0.495815
0.491972
0.494534
0.494534
0.494534
0.495815
0.499659
0.494534
0.495815
0.497097
0.497097
0.493253
0.495815
0.494534
0.494534
0.494534
0.497097
0.488128
0.494534
0.495815
0.494534
0.494534
0.497097
0.498378
0.494534
0.500940
0.495815
0.495815
0.493253
0.493253
0.495815
0.494534
0.493253
0.495815
0.493253
0.494534
0.493253
0.493253
0.497097
0.503502
0.503502
0.494534
0.502221
0.495815
0.495815
0.494534
0.495815
0.495815
0.498378
0.497097
0.495815
0.497097
0.495815
0.495815
0.497097
0.497097
0.497097
0.497097
0.495815
0.498378
0.506065
0.495815
0.498378
0.498378
0.504784
0.498378
0.503502
0.495815
0.497097
0.497097
0.498378
0.498378
0.497097
0.495815
0.497097
0.498378
0.495815
0.498378
0.497097
0.497097
0.495815
0.495815
0.497097
0.497097
0.495815
0.497097
0.503502
0.498378
0.498378
0.497097
0.497097
0.499659
0.497097
0.499659
0.500940
0.500940
0.499659
0.502221
0.506065
0.499659
0.497097
0.495815
0.497097
0.497097
0.499659
0.500940
0.499659
0.497097
0.499659
0.500940
0.494534
0.498378
0.504784
0.499659
0.498378
0.500940
0.499659
0.500940
0.499659
0.499659
0.499659
0.500940
0.498378
0.498378
0.498378
0.499659
0.500940
0.498378
0.498378
0.498378
0.498378
0.498378
0.507346
0.499659
0.498378
0.497097
0.498378
0.500940
0.500940
0.499659
0.498378
0.498378
0.507346
0.502221
0.499659
0.499659
0.500940
0.500940
0.508627
0.500940
0.502221
0.504784
0.500940
0.500940
0.504784
0.503502
0.503502
0.503502
0.500940
0.504784
0.503502
0.502221
0.502221
0.502221
0.502221
0.500940
0.507346
0.500940
0.525283
0.509908
0.507346
0.507346
0.506065
0.504784
0.503502
0.506065
0.503502
0.504784
0.509908
0.507346
0.504784
0.508627
0.504784
0.504784
0.504784
0.512471
0.504784
0.503502
0.506065
0.504784
0.512471
0.503502
0.506065
0.504784
0.506065
0.506065
0.506065
0.503502
0.515033
0.506065
0.504784
0.512471
0.508627
0.516314
0.506065
0.506065
0.506065
0.507346
0.506065
0.508627
0.506065
0.508627
0.508627
0.506065
0.509908
0.507346
0.506065
0.507346
0.507346
0.509908
0.508627
0.506065
0.508627
0.508627
0.508627
0.511190
0.506065
0.508627
0.509908
0.511190
0.508627
0.507346
0.507346
0.507346
0.508627
0.508627
0.509908
0.508627
0.508627
0.511190
0.516314
0.507346
0.511190
0.509908
0.508627
0.509908
0.516314
0.511190
0.508627
0.509908
0.509908
0.511190
0.509908
0.517595
0.512471
0.511190
0.507346
0.509908
0.508627
0.512471
0.511190
0.508627
0.512471
0.511190
0.512471
0.511190
0.511190
0.512471
0.511190
0.512471
0.512471
0.512471
0.509908
0.509908
0.512471
0.512471
0.512471
0.509908
0.513752
0.513752
0.515033
0.513752
0.512471
0.515033
0.512471
0.515033
0.513752
0.520158
0.513752
0.509908
0.511190
0.513752
0.512471
0.511190
0.513752
0.513752
0.515033
0.520158
0.511190
0.513752
0.513752
0.522720
0.515033
0.512471
0.512471
0.513752
0.513752
0.513752
0.513752
0.520158
0.517595
0.513752
0.513752
0.516314
0.513752
0.513752
0.515033
0.517595
0.516314
0.516314
0.516314
0.516314
0.516314
0.516314
0.516314
0.515033
0.522720
0.517595
0.515033
0.515033
0.518877
0.517595
0.516314
0.516314
0.516314
0.522720
0.518877
0.516314
0.518877
0.525283
0.513752
0.517595
0.517595
0.518877
0.522720
0.513752
0.521439
0.517595
0.518877
0.516314
0.515033
0.515033
0.518877
0.520158
0.516314
0.515033
0.516314
0.518877
0.516314
0.517595
0.516314
0.516314
0.518877
0.517595
0.517595
0.516314
0.515033
0.513752
0.516314
0.515033
0.515033
0.516314
0.517595
0.524001
0.516314
0.516314
0.518877
0.520158
0.518877
0.520158
0.517595
0.521439
0.518877
0.520158
0.517595
0.521439
0.518877
0.518877
0.520158
0.516314
0.517595
0.517595
0.520158
0.518877
0.516314
0.520158
0.529126
0.520158
0.525283
0.520158
0.520158
0.521439
0.520158
0.518877
0.517595
0.515033
0.521439
0.515033
0.515033
0.518877
0.518877
0.518877
0.521439
0.517595
0.520158
0.522720
0.527845
0.530407
0.531688
0.526564
0.526564
0.525283
0.518877
0.521439
0.520158
0.520158
0.518877
0.517595
0.518877
0.518877
0.518877
0.521439
0.517595
0.518877
0.522720
0.522720
0.524001
0.522720
0.522720
0.522720
0.525283
0.522720
0.524001
0.524001
0.524001
0.530407
0.524001
0.527845
0.526564
0.526564
0.524001
0.521439
0.521439
0.522720
0.522720
0.522720
0.531688
0.522720
0.521439
0.524001
0.525283
0.521439
0.525283
0.529126
0.530407
0.522720
0.532970
0.534251
0.559874
0.525283
0.524001
0.525283
0.525283
0.524001
0.524001
0.532970
0.527845
0.524001
0.524001
0.525283
0.526564
0.524001
0.525283
0.525283
0.527845
0.526564
0.527845
0.525283
0.534251
0.527845
0.525283
0.534251
0.526564
0.530407
0.527845
0.526564
0.525283
0.524001
0.527845
0.526564
0.527845
0.524001
0.526564
0.529126
0.527845
0.526564
0.526564
0.529126
0.531688
0.529126
0.526564
0.527845
0.529126
0.527845
0.527845
0.527845
0.527845
0.527845
0.530407
0.530407
0.530407
0.529126
0.530407
0.529126
0.530407
0.530407
0.535532
0.532970
0.530407
0.529126
0.529126
0.536813
0.529126
0.529126
0.529126
0.529126
0.529126
0.531688
0.529126
0.531688
0.529126
0.531688
0.530407
0.539375
0.534251
0.529126
0.529126
0.531688
0.532970
0.529126
0.531688
0.532970
0.532970
0.532970
0.530407
0.532970
0.532970
0.531688
0.531688
0.530407
0.532970
0.534251
0.532970
0.531688
0.532970
0.531688
0.539375
0.532970
0.534251
0.534251
0.532970
0.532970
0.534251
0.531688
0.534251
0.532970
0.532970
0.534251
0.534251
0.539375
0.534251
0.532970
0.534251
0.535532
0.534251
0.535532
0.535532
0.534251
0.538094
0.534251
0.535532
0.535532
0.538094
0.534251
0.535532
0.534251
0.534251
0.532970
0.534251
0.535532
0.535532
0.543219
0.539375
0.536813
0.535532
0.536813
0.535532
0.535532
0.538094
0.536813
0.536813
0.538094
0.535532
0.534251
0.536813
0.535532
0.541938
0.536813
0.535532
0.535532
0.536813
0.539375
0.536813
0.535532
0.538094
0.536813
0.536813
0.536813
0.539375
0.535532
0.536813
0.535532
0.539375
0.536813
0.538094
0.539375
0.539375
0.536813
0.536813
0.538094
0.540657
0.541938
0.538094
0.539375
0.539375
0.539375
0.545781
0.544500
0.547062
0.540657
0.538094
0.539375
0.539375
0.539375
0.541938
0.538094
0.539375
0.540657
0.539375
0.539375
0.547062
0.539375
0.540657
0.540657
0.547062
0.541938
0.541938
0.543219
0.544500
0.541938
0.541938
0.547062
0.540657
0.541938
0.564999
0.544500
0.544500
0.541938
0.543219
0.541938
0.544500
0.539375
0.541938
0.543219
0.543219
0.543219
0.541938
0.544500
0.544500
0.541938
0.543219
0.545781
0.540657
0.543219
0.547062
0.544500
0.544500
0.543219
0.544500
0.543219
0.544500
0.545781
0.544500
0.541938
0.544500
0.543219
0.547062
0.543219
0.544500
0.547062
0.547062
0.544500
0.544500
0.544500
0.545781
0.547062
0.550906
0.554750
0.548344
0.544500
0.547062
0.547062
0.545781
0.547062
0.544500
0.572686
0.557312
0.547062
0.548344
0.557312
0.550906
0.549625
0.548344
0.548344
0.547062
0.549625
0.547062
0.545781
0.549625
0.547062
0.547062
0.562437
0.661087
0.491972
0.522720
0.522720
0.532970
0.568842
0.627777
0.662368
0.668774
0.616246
0.579092
0.586779
0.573967
0.573967
0.575248
0.571405
0.570124
0.573967
0.571405
0.572686
0.568842
0.570124
0.570124
0.572686
0.571405
0.568842
0.571405
0.580373
0.568842
0.570124
0.571405
0.572686
0.568842
0.579092
0.570124
0.567561
0.568842
0.568842
0.570124
0.570124
0.568842
0.571405
0.571405
0.571405
0.572686
0.568842
0.572686
0.568842
0.571405
0.573967
0.570124
0.573967
0.575248
0.571405
0.571405
0.571405
0.568842
0.570124
0.572686
0.573967
0.576530
0.571405
0.573967
0.571405
0.580373
0.573967
0.573967
0.571405
0.575248
0.576530
0.576530
0.577811
0.576530
0.576530
0.573967
0.584217
0.572686
0.576530
0.573967
0.573967
0.576530
0.576530
0.576530
0.579092
0.580373
0.580373
0.576530
0.580373
0.623933
0.676461
0.567828
0.501207
0.496082
0.497363
0.494801
0.502488
0.494801
0.496082
0.497363
0.494801
0.493520
0.490958
0.490958
0.490958
0.497363
0.489676
0.487114
0.488395
0.487114
0.487114
0.490958
0.488395
0.488395
0.488395
0.490958
0.490958
0.489676
0.493520
0.492239
0.490958
0.492239
0.492239
0.494801
0.494801
0.493520
0.493520
0.490958
0.490958
0.489676
0.490958
0.492239
0.488395
0.494801
0.490958
0.493520
0.490958
0.488395
0.488395
0.492239
0.488395
0.487114
0.496082
0.488395
0.492239
0.490958
0.487114
0.492239
0.493520
0.489676
0.485833
0.488395
0.490958
0.499926
0.489676
0.489676
0.489676
0.488395
0.487114
0.487114
0.484552
0.487114
0.484552
0.492239
0.487114
0.488395
0.485833
0.485833
0.487114
0.484552
0.488395
0.487114
0.485833
0.487114
0.485833
0.487114
0.488395
0.485833
0.485833
0.484552
0.483270
0.484552
0.480708
0.488395
0.484552
0.481989
0.480708
0.480708
0.480708
0.489676
0.478146
0.480708
0.480708
0.485833
0.483270
0.480708
0.481989
0.480708
0.480708
0.481989
0.478146
0.476865
0.478146
0.481989
0.478146
0.474302
0.479427
0.479427
0.475583
0.475583
0.485833
0.474302
0.475583
0.476865
0.480708
0.475583
0.474302
0.475583
0.475583
0.470459
0.473021
0.475583
0.473021
0.475583
0.473021
0.481989
0.475583
0.473021
0.474302
0.474302
0.479427
0.474302
0.473021
0.473021
0.474302
0.471740
0.471740
0.474302
0.473021
0.474302
0.475583
0.471740
0.471740
0.474302
0.471740
0.473021
0.473021
0.473021
0.479427
0.473021
0.478146
0.470459
0.471740
0.475583
0.473021
0.469178
0.470459
0.470459
0.467896
0.467896
0.469178
0.470459
0.476865
0.467896
0.470459
0.473021
0.469178
0.467896
0.469178
0.473021
0.469178
0.469178
0.469178
0.470459
0.470459
0.469178
0.473021
0.471740
0.470459
0.473021
0.473021
0.480708
0.474302
0.473021
0.479427
0.473021
0.475583
0.474302
0.473021
0.478146
0.471740
0.471740
0.480708
0.470459
0.471740
0.473021
0.471740
0.470459
0.474302
0.471740
0.469178
0.474302
0.474302
0.474302
0.476865
0.481989
0.485833
0.506332
0.494801
0.478146
0.474302
0.471740
0.475583
0.473021
0.476865
0.474302
0.474302
0.473021
0.473021
0.470459
0.473021
0.471740
0.470459
0.473021
0.473021
0.471740
0.471740
0.466615
0.471740
0.479427
0.470459
0.471740
0.471740
0.470459
0.471740
0.470459
0.470459
0.465334
0.470459
0.473021
0.481989
0.473021
0.474302
0.471740
0.471740
0.470459
0.471740
0.471740
0.473021
0.474302
0.471740
0.467896
0.471740
0.470459
0.471740
0.469178
0.470459
0.469178
0.465334
0.470459
0.471740
0.470459
0.471740
0.470459
0.473021
0.474302
0.470459
0.467896
0.470459
0.471740
0.474302
0.475583
0.475583
0.474302
0.473021
0.475583
0.470459
0.481989
0.474302
0.476865
0.475583
0.476865
0.475583
0.475583
0.475583
0.484552
0.480708
0.480708
0.476865
0.478146
0.480708
0.479427
0.487114
0.479427
0.479427
0.481989
0.479427
0.481989
0.488395
0.485833
0.479427
0.480708
0.480708
0.481989
0.479427
0.479427
0.483270
0.480708
0.481989
0.480708
0.476865
0.481989
0.480708
0.480708
0.480708
0.480708
0.480708
0.484552
0.489676
0.484552
0.481989
0.483270
0.487114
0.485833
0.485833
0.485833
0.489676
0.488395
0.484552
0.488395
0.489676
0.487114
0.485833
0.490958
0.489676
0.488395
0.488395
0.488395
0.488395
0.487114
0.487114
0.487114
0.489676
0.485833
0.484552
0.484552
0.483270
0.483270
0.483270
0.484552
0.484552
0.484552
0.480708
0.487114
0.492239
0.485833
0.484552
0.485833
0.483270
0.489676
0.485833
0.485833
0.483270
0.484552
0.487114
0.490958
0.483270
0.483270
0.483270
0.483270
0.487114
0.487114
0.485833
0.487114
0.488395
0.488395
0.489676
0.489676
0.489676
0.489676
0.490958
0.488395
0.487114
0.487114
0.485833
0.494801
0.485833
0.483270
0.481989
0.487114
0.483270
0.487114
0.485833
0.487114
0.488395
0.488395
0.488395
0.487114
0.497363
0.487114
0.485833
0.487114
0.487114
0.487114
0.483270
0.483270
0.490958
0.485833
0.478146
0.483270
0.478146
0.480708
0.480708
0.485833
0.481989
0.483270
0.483270
0.480708
0.510175
0.521706
0.506332
0.488395
0.496082
0.474302
0.481989
0.479427
0.476865
0.476865
0.478146
0.475583
0.469178
0.467896
0.469178
0.474302
0.467896
0.473021
0.471740
0.473021
0.474302
0.480708
0.479427
0.479427
0.476865
0.479427
0.479427
0.479427
0.479427
0.485833
0.484552
0.484552
0.480708
0.483270
0.481989
0.479427
0.480708
0.481989
0.481989
0.479427
0.481989
0.483270
0.481989
0.483270
0.484552
0.481989
0.479427
0.485833
0.484552
0.483270
0.480708
0.494801
0.481989
0.476865
0.481989
0.484552
0.483270
0.481989
0.483270
0.487114
0.479427
0.484552
0.514019
0.488395
0.481989
0.473021
0.514019
0.488395
0.484552
0.510175
0.525549
0.481989
0.479427
0.485833
0.498645
0.501207
0.521706
0.674166
0.706195
0.706195
0.711320
0.701071
0.693384
0.685696
0.679291
0.671604
0.666479
0.663916
0.675447
0.661354
0.662635
0.658792
0.654948
0.649823
0.644699
0.637012
0.631887
0.629325
0.624200
0.620356
0.613951
0.612669
0.607545
0.606263
0.603701
0.598576
0.596014
0.602420
0.597295
0.616513
0.716445
0.719007
0.730538
0.725413
0.731819
0.717726
0.720288
0.724132
0.727975
0.731819
0.735662
0.738225
0.736943
0.740787
0.747193
0.749755
0.752318
0.757442
0.757442
0.765129
0.788191
0.784347
0.801002
0.812533
0.822782
0.872748
0.950900
0.949619
0.943213
0.932964
0.930401
0.912465
0.915027
0.931682
0.916308
0.916308
0.913746
0.912465
0.916308
0.917589
0.916308
0.911184
0.913746
0.948338
1.038020
0.977874
0.968906
0.970187
0.990686
1.062431
1.077806
1.086774
1.072681
1.144427
1.152114
1.200799
1.189268
1.158520
1.135459
1.127771
1.123928
1.117522
1.109835
1.114960
1.123928
1.171332
1.184143
1.185424
1.191830
1.239234
1.228984
1.226422
1.222579
1.235390
1.291762
1.377601
1.439098
1.437816
1.425005
1.408349
1.399381
1.414755
1.478814
1.476351
1.478913
1.496850
1.571158
1.637779
1.628811
1.681339
1.724899
1.727461
1.730024
1.691588
1.756928
1.776146
1.768459
1.751804
1.737711
1.731305
1.715931
1.703119
1.694151
1.741554
1.753085
1.753085
1.751804
1.742836
1.744117
1.756928
1.749241
1.742836
1.744117
1.782552
1.824831
1.846611
1.838924
1.829955
1.809457
1.905545
1.891452
1.911951
1.915794
1.864547
1.756928
1.722337
1.726180
1.818425
1.806894
1.796645
1.768459
1.768459
1.779990
1.840205
1.941418
1.927524
1.962116
1.939055
1.927524
1.899338
1.900620
1.890370
1.960835
2.056923
2.197853
2.186322
2.245256
2.219633
2.269598
2.309315
2.338782
2.322127
2.333657
2.351594
2.343907
2.374655
2.393872
2.413090
2.427183
2.419847
2.490311
2.569744
2.533871
2.560776
2.542840
2.513372
2.531309
2.563338
2.531309
2.515935
2.494155
2.494155
2.532590
2.559495
2.555651
2.577431
2.609461
2.618429
2.678644
2.681207
2.674801
2.713236
2.727329
2.747828
2.741422
2.751671
2.750390
2.777295
2.743984
2.736297
2.756796
2.782420
2.773451
2.760640
2.749109
2.782420
2.808043
2.859290
2.886195
2.927192
2.941285
2.918162
2.946348
2.939942
2.937380
2.968128
2.993752
2.955317
2.946348
2.929693
2.920725
2.907913
2.904069
2.901507
2.924568
2.955317
2.943786
2.928412
2.915600
2.914319
2.947629
2.952754
2.947629
2.957879
2.955317
2.957879
2.982221
2.984784
2.977097
2.979659
2.986065
3.001439
3.009126
3.009126
3.020657
3.015532
3.021938
3.015532
2.996314
2.982221
2.966847
2.960441
2.974534
2.987346
3.006564
3.088559
3.130838
3.126994
3.125713
3.200021
3.197459
3.173116
3.225645
3.196178
3.125713
3.077028
3.070622
3.062935
3.098808
3.123151
3.133400
3.143650
3.176960
3.243581
3.298672
3.331982
3.353762
3.371699
3.384511
3.385792
3.387073
3.398604
3.388354
3.380667
3.360168
3.339669
3.320452
3.324296
3.356325
3.364012
3.349919
3.335826
3.364012
3.433195
3.421665
3.339669
3.362731
3.434477
3.434477
3.392198
3.388354
3.416540
3.430633
3.411415
3.399885
3.379386
3.353762
3.352481
3.342232
3.362731
3.379386
3.437039
3.415571
3.457850
3.457850
3.382261
3.416853
3.383542
3.405322
3.347669
3.451444
3.352794
3.234926
3.372011
3.623122
3.708961
3.693587
3.624403
3.632090
3.665401
3.661557
3.615435
3.693587
3.876795
4.011319
3.936073
3.937355
3.924543
3.959135
4.037286
4.071878
4.128250
4.096220
3.987320
4.006538
4.098783
4.109032
4.103908
4.115438
4.053942
4.062910
3.991164
3.904044
4.014225
4.187184
4.280710
4.293522
4.207683
4.197433
4.153873
4.129531
4.182059
4.312739
4.381923
4.353737
4.421639
4.430608
4.384708
4.364210
4.410332
4.469266
4.487203
4.480797
4.444924
4.302713
4.319368
4.491046
4.574323
4.624289
4.665286
4.656318
4.580729
4.606352
4.808778
4.772905
4.753687
4.863869
4.870275
4.897179
4.943302
4.992765
5.020951
5.041451
5.056824
5.083729
5.076042
5.132414
5.169568
5.126008
5.114477
5.113196
5.149069
5.208003
5.266937
5.319466
5.341246
5.278468
5.154194
5.168287
5.243876
5.188786
5.131133
5.218253
5.393774
5.532141
5.528597
5.582407
5.596500
5.601624
5.609312
5.624686
5.654153
5.650309
5.649028
5.693869
5.746397
5.787395
5.834799
5.878359
5.905263
5.933449
5.963762
5.974011
5.979136
5.988104
6.057288
6.072662
6.081630
6.099567
6.134159
6.100848
6.182843
6.214873
6.209748
6.143127
6.187968
6.143127
6.145689
6.182843
6.216154
6.267401
6.278932
6.293025
6.307117
6.298149
6.325054
6.335303
6.404487
6.468546
6.535965
6.598743
6.624367
6.617961
6.648709
6.715330
6.765296
6.730704
6.515467
6.453970
6.486000
6.482156
6.507780
6.783233
6.919037
6.966441
7.046537
7.033725
7.032444
7.011945
7.002977
6.991446
7.011945
7.002977
7.081129
7.051661
7.055505
7.069598
6.960698
7.001696
7.017070
7.119564
7.497511
7.444486
7.385552
6.988387
7.386833
7.413738
7.416300
7.532887
7.559792
7.572604
7.562355
7.568760
7.573885
7.580291
7.591822
7.613602
7.664849
7.721220
7.783998
7.844213
7.899304
7.933896
7.952530
7.955093
7.961499
7.953812
7.861567
7.821850
7.803914
7.797508
7.809039
7.853880
7.887190
7.896159
7.955093
8.040932
8.067836
8.065274
8.079367
8.117802
8.069118
8.161362
7.930750
7.903846
8.010183
8.129333
8.345852
8.322790
8.308698
8.239514
8.242076
7.961499
7.966623
8.087054
8.208766
8.329196
8.249763
7.698857
7.292724
7.982581
8.313822
8.195954
8.154956
7.501556
7.474651
7.898721
8.167768
8.236952
8.285636
8.303573
8.295886
8.306135
8.363788
8.418879
8.550839
8.864941
8.936687
8.937599
8.901727
9.105433
9.113121
9.027282
9.036250
9.164368
9.247644
9.264299
9.257894
9.263019
9.275830
9.277111
9.278393
9.312984
9.318109
9.380886
9.494911
9.549015
9.541328
9.591294
9.582326
9.552858
9.552858
9.552858
9.556703
9.538766
9.555421
9.564389
9.586169
9.604106
9.614355
9.633573
9.697632
9.759129
9.842404
9.938493
10.022540
10.013572
10.023821
10.057132
10.046883
9.989229
9.971292
9.935420
9.921327
9.913640
9.879048
9.847018
9.831645
9.840612
9.864955
9.867517
9.895703
9.930295
9.982823
10.139127
10.285181
10.338990
10.406893
10.479920
10.529690
10.532252
10.674463
10.607841
10.328546
10.278580
10.420790
10.565563
10.726992
10.700087
10.614247
10.732116
10.803862
10.846141
10.874327
10.869202
10.873045
10.882013
10.942229
10.993476
11.151092
11.194652
11.216432
11.283053
11.236931
10.974289
11.007600
11.286897
11.285615
11.195933
11.002475
10.980695
10.935854
10.937136
10.864108
10.949947
11.085752
11.166466
11.300989
11.289459
11.316363
11.376579
11.403483
11.416295
11.441919
11.472667
11.593635
11.609009
11.658975
11.684598
11.699972
11.699972
11.705097
11.707659
11.703815
11.699972
11.687160
11.667943
11.648725
11.339961
11.528295
11.612852
11.790936
11.949801
11.952364
12.006173
11.910501
12.001466
12.101398
12.128302
12.162894
12.137270
12.098835
12.256420
12.349946
12.367882
12.005309
11.481308
11.811852
12.041182
12.189798
12.257701
12.417848
12.502405
12.264412
12.100422
12.064548
12.076079
12.181135
12.388686
12.538584
12.532178
12.306691
12.082485
12.073517
12.104265
11.950523
12.007872
12.080898
12.141114
12.184674
12.239764
12.221828
12.214141
12.260263
12.347383
12.421692
12.540841
12.698731
12.719230
12.684638
12.655171
12.607767
12.603924
12.593675
12.570613
12.520647
12.501430
12.500149
12.584706
12.630829
12.669264
12.712824
12.647484
12.592393
12.655171
12.674389
12.669264
12.675670
12.835817
12.922937
12.944717
12.954967
12.997245
13.073513
13.100418
13.119636
13.094012
13.078638
13.090168
13.076076
12.595634
12.616133
12.863400
13.003048
13.033796
12.999205
13.056858
13.120916
13.149102
13.201631
13.258002
13.187538
13.184976
13.213161
13.261846
13.323342
13.315656
13.306687
13.356653
13.407900
13.382277
13.347685
13.279782
13.201631
13.322062
13.433524
13.441211
13.386120
12.900554
13.324624
13.421993
13.429680
13.401494
13.045327
13.042765
13.032516
13.110667
13.202912
13.165758
13.167039
13.172164
13.232379
13.278502
13.342560
13.310531
13.174726
13.250316
13.324624
13.327186
13.350247
13.406619
13.455304
13.454022
13.562922
13.777426
13.805612
13.851734
13.809455
13.733866
13.612154
13.480193
13.393073
13.332857
13.404603
13.416134
13.382823
13.398197
13.367449
13.466100
13.735147
13.827392
13.814580
13.813298
13.796643
13.783832
13.801768
13.795362
13.817142
13.715929
13.723617
13.767177
13.753083
13.795362
13.827392
13.855577
13.945260
13.958072
13.974727
14.066320
14.059914
14.126535
14.205968
14.222624
14.214936
14.194438
14.188032
14.194438
14.159846
14.168814
14.175220
14.255934
14.257215
14.223905
14.111161
14.066320
14.093225
13.980481
13.920266
14.000980
13.943327
13.899767
13.660187
13.564098
13.555130
13.588441
13.678123
13.790867
13.976638
13.898486
14.262340
14.469891
14.557744
14.548776
14.507778
14.491123
14.461656
13.992745
14.410409
14.459094
14.451406
14.457812
14.477030
14.518028
14.483436
14.470624
14.470624
14.471906
14.520590
14.507778
14.561588
14.660238
14.606429
14.593617
14.576962
14.452688
14.430908
14.114457
14.255386
14.407846
14.405284
14.286135
14.155455
14.020931
14.109332
14.158017
14.252824
14.288697
14.286135
14.210546
14.197734
14.145205
14.129831
14.187484
14.278448
14.292541
14.409128
14.319446
14.371974
14.424502
14.430908
14.425783
14.511621
14.529558
14.514184
14.546214
14.566712
14.556463
14.591055
14.597461
14.632052
14.662801
14.710204
14.738390
14.746078
14.751202
14.783232
14.813980
14.687143
14.664082
14.694830
14.697392
14.685862
14.653832
14.649989
14.703798
14.712767
14.706361
14.730703
14.719172
14.697392
14.628209
14.658957
14.635896
14.315602
14.468061
14.556463
14.711486
14.819104
14.839603
14.753764
14.707642
14.652552
14.714047
14.813980
14.869070
14.857540
14.689706
14.705080
14.605147
14.555182
14.720454
14.616678
14.721735
14.692267
14.693549
14.771701
14.825510
14.819104
14.935692
14.842166
15.002313
15.051669
14.999141
14.954299
15.328403
15.158007
15.046544
14.960705
14.977361
14.910739
15.113165
15.132382
15.004265
14.913301
14.896646
14.899209
14.885116
14.899209
14.938925
14.895365
14.926113
14.976079
15.061918
15.120852
15.168256
15.223347
15.240002
15.251533
15.256657
15.178505
14.470015
13.835160
14.509607
15.077902
15.170818
15.133664
15.106759
15.090104
15.047825
15.015796
14.991453
14.974798
15.001702
15.045262
15.117008
15.196442
15.264344
15.359151
15.386056
15.398868
15.447553
15.468051
15.520473
15.540972
15.519192
15.543534
15.491006
15.405168
15.233489
15.128433
15.260394
15.253988
15.159182
14.908071
14.681409
14.733937
14.855649
14.947893
15.008109
15.020921
15.026045
15.061918
15.122133
15.207973
15.252813
15.304061
15.320716
15.356588
15.352745
15.342496
15.361713
15.370682
15.369401
15.327122
15.301498
15.306623
15.283562
15.287405
15.292530
15.288687
15.332247
15.361713
15.359151
15.325841
15.141351
15.017076
15.266907
14.563540
14.339334
13.835160
14.618507
14.974127
15.054231
14.467452
13.835160
13.369360
14.113094
14.608257
14.893413
14.605147
14.785793
14.887007
14.935692
15.058684
15.302779
15.347621
15.375807
15.419367
15.444990
15.496237
15.711369
15.693432
15.690869
15.734429
15.730586
15.760053
15.708806
15.713931
15.660121
15.588375
15.575563
15.560189
15.556346
15.574283
15.564034
15.525598
15.515348
15.491006
15.496131
15.447446
15.479475
15.416698
15.416698
15.450008
15.384668
15.346233
15.311641
15.371857
15.357763
15.316766
15.287299
15.283455
15.271925
15.277049
15.189929
15.241177
15.273206
15.241177
15.209147
15.040031
15.061811
15.146369
15.180962
15.160462
15.043876
14.979816
14.605819
14.750592
14.437985
15.089433
15.292530
15.315591
15.333528
15.339933
15.296373
15.031170
14.837712
14.530230
14.338053
13.833879
14.161127
14.455798
14.615945
14.885726
14.755046
13.835160
13.362954
13.405885
13.459694
13.549376
13.867108
14.124624
14.626194
15.121462
15.437303
15.479582
15.707525
15.740835
15.747241
15.749804
15.608874
15.412854
15.456414
15.465383
15.439759
15.412854
15.383388
15.426948
15.392355
15.385949
15.364169
15.330859
15.337265
15.325734
15.293705
15.341108
15.342389
15.325734
15.375700
15.346233
15.346233
15.316766
15.302673
15.307797
15.320609
15.220677
15.250145
15.246302
15.307797
15.325734
15.305235
15.347514
15.375700
15.398761
15.420541
15.403886
15.402605
15.450008
15.502537
15.548659
15.557627
15.516629
15.479475
15.499974
15.491006
15.503818
15.499974
15.451289
15.451289
15.444883
15.433353
15.528160
15.644747
15.672933
15.644747
15.657559
15.675495
15.680620
15.681901
15.713931
15.707525
15.685745
15.667809
15.654997
15.661403
15.640903
15.626811
15.671652
15.742117
15.824112
15.812581
15.806175
15.786958
15.662683
15.546097
15.593500
15.630654
15.628092
15.626811
15.616561
15.578126
15.575563
15.552503
15.662683
15.669089
15.615280
15.562752
15.589657
15.521754
15.635779
15.638341
15.564034
15.435915
15.280893
15.216834
15.356483
15.397480
15.484600
15.405168
15.475632
15.542253
15.729305
15.784395
15.829237
15.858704
15.907389
15.804894
15.871515
15.924044
15.692151
15.771584
15.767740
15.740835
15.742117
15.713931
15.688307
15.671652
15.640903
15.639623
15.634498
15.607593
15.583251
15.552503
15.526879
15.455133
15.443603
15.430791
15.432072
15.332140
15.332140
15.350077
15.438478
15.494849
15.551221
15.571720
15.593500
15.585813
15.590938
15.570439
15.556346
15.526879
15.526879
15.516629
15.465383
15.444883
15.446165
15.396199
15.406448
15.420541
15.411573
15.402605
15.374419
15.370575
15.421823
15.400043
15.347514
15.360326
15.333421
15.330859
15.351357
15.341108
15.385949
15.379543
15.608874
15.748523
15.792083
15.702400
15.629373
15.375700
15.347514
15.178399
14.836325
14.409799
14.596180
14.679456
14.301509
14.257949
14.342506
14.266917
14.774263
14.988219
15.133664
15.140070
15.186193
15.272031
15.323278
15.246408
15.190036
15.240002
15.233596
15.370682
15.469333
15.721618
15.674214
15.539691
14.969567
14.336772
13.835160
14.072726
14.626194
15.127868
15.629479
15.688307
15.701119
15.770303
15.621686
15.580688
15.661403
15.603749
15.681901
14.874760
14.339334
13.835160
13.333487
13.387948
13.477631
14.068253
14.622351
14.963878
15.104807
14.491795
14.522543
14.662191
14.584039
14.543041
14.464890
14.541089
14.562869
14.657676
14.774263
14.810136
14.826792
14.824229
14.807573
14.819104
14.753764
14.726860
14.729422
14.717892
14.770420
14.865227
14.849853
14.878038
14.940816
15.127868
15.628199
16.050880
16.230434
16.232998
16.243246
16.203529
16.118973
15.917828
15.528350
15.370766
15.302673
15.444883
15.352639
15.437197
15.465383
15.510223
15.533285
15.585813
15.653715
15.717774
15.720337
15.761334
15.671652
15.672933
15.777989
15.907389
16.082911
16.231716
16.286806
16.028009
15.849925
15.748713
15.776898
15.758962
15.755118
15.710278
15.682091
15.720527
15.678247
15.642375
15.749993
15.724370
15.956263
15.929358
15.978043
15.940889
15.934483
15.743587
15.407919
15.537128
15.552503
15.838205
15.740835
15.715212
15.344952
15.608874
15.863829
15.827955
15.410292
15.566595
15.493568
15.450008
15.456414
15.525598
15.594781
15.601187
15.601187
15.658840
15.652434
15.660121
15.625529
15.616561
15.619123
15.593500
15.598625
15.631935
15.658840
15.726743
15.729305
15.758772
15.735711
15.717774
15.756209
15.739554
15.745960
15.794645
15.895858
15.906107
15.865109
15.608874
15.724180
15.725461
15.608874
15.571720
15.465383
15.428228
15.411573
15.379543
15.343671
15.291142
15.298829
15.250145
15.237333
15.196335
15.192492
15.170712
15.166868
15.141245
15.097685
15.065656
15.075905
15.042594
15.006721
15.019533
15.020814
15.032345
15.028502
14.977254
14.973516
14.972236
14.953018
14.938925
14.894084
14.926113
14.937644
14.931238
14.910739
14.890241
14.876147
14.837712
14.881272
14.896646
14.904333
14.864616
14.881272
14.794152
14.758279
14.704470
14.682690
14.601975
14.562259
14.495638
14.464890
14.343788
14.311758
14.311758
14.306634
14.245137
14.191328
14.111895
13.836442
13.562818
13.990730
13.899767
13.857488
13.901048
13.886955
13.884393
13.886955
13.897204
13.922828
13.899767
13.949733
13.959982
13.918984
13.913860
13.916422
13.917704
13.912579
13.897204
13.432137
13.659557
14.045192
14.367396
14.366116
14.372521
14.358428
14.375084
14.390458
14.453236
14.482702
14.667926
14.712767
14.692267
14.669207
14.661520
14.634615
14.635896
14.671769
14.726860
14.767858
14.769138
14.805012
14.813980
14.839603
14.853696
14.853696
14.862664
14.869070
14.907506
14.922879
14.945941
14.974127
15.118290
15.118290
15.091385
15.069605
15.063199
15.031170
14.985047
14.923551
14.905615
14.881272
14.868461
14.874866
14.544323
14.557135
14.553291
14.596851
14.585320
14.539198
14.534073
14.555853
14.566103
14.537917
14.568665
14.575071
14.645535
14.710876
14.787746
14.847961
14.932519
14.961987
14.969673
14.969673
14.964549
14.953018
14.914583
14.914583
14.909458
14.904333
14.874866
14.913301
14.882553
14.849243
14.890241
14.958143
15.017076
15.073449
15.070887
15.086261
15.074730
15.082417
15.033732
14.997859
14.977361
14.892803
15.073449
15.192598
15.115727
15.236158
15.231033
15.342496
15.224627
15.423210
15.371963
15.274593
15.151601
15.083698
15.115727
15.102916
15.166975
15.193879
15.183630
15.183630
15.166975
15.177224
15.149038
15.102916
15.076011
15.038857
15.041419
15.018358
15.014515
14.983767
14.973516
14.961987
14.977361
14.969673
14.946612
14.974798
15.004265
15.082417
15.117008
15.179787
15.213097
15.214378
15.190036
15.188755
15.178505
15.183630
15.172099
15.100353
15.164412
15.231033
15.210535
15.199004
15.179787
15.175942
15.118290
15.141351
15.110602
15.106759
15.125977
15.184911
15.196442
15.246408
15.236158
15.248970
15.181067
15.183630
15.209253
15.166975
15.213097
15.184911
15.079855
15.052950
15.063199
15.022202
14.979922
15.000422
14.997859
15.019639
15.032451
15.037576
15.046544
15.082417
15.077292
15.118290
15.149038
15.214378
15.224627
15.254095
15.286124
15.261782
15.211816
15.122133
15.129821
15.199004
15.168256
15.150319
15.083698
15.068324
15.047825
15.090104
15.140070
15.088822
15.100353
15.068324
15.054231
15.014515
14.968392
14.983767
14.999141
15.035013
15.033732
15.015796
15.047825
15.055512
15.058075
15.056793
15.082417
15.113165
15.155444
15.158007
15.161850
15.192598
15.195161
15.225908
15.241282
15.248970
15.257938
15.256657
15.275874
15.286124
15.302779
15.355308
15.409117
15.418085
15.444990
15.450114
15.442428
15.461645
15.453959
15.465488
15.500080
15.683183
15.736992
15.772865
15.802332
15.826674
15.801051
15.847173
15.803613
15.770303
15.744678
15.716493
15.678058
15.695994
15.692151
15.608874
15.588375
15.539691
15.516629
15.521754
15.521754
15.516629
15.523035
15.537128
15.560189
15.571720
15.616561
15.576845
15.616561
15.635779
15.657559
15.643466
15.619123
15.694713
15.704963
15.707525
15.658840
15.656278
15.681901
15.676777
15.704963
15.694713
15.692151
15.715212
15.717774
15.726743
15.689589
15.701119
15.698557
15.717774
15.692151
15.697275
15.820269
15.933012
15.984259
16.080538
16.043383
16.066444
16.034414
16.019041
15.989573
15.978043
15.951138
15.926796
15.915265
15.896048
15.862737
15.807647
15.767930
15.680810
15.660311
15.630844
15.616751
15.561661
15.511695
15.507852
15.457885
15.385949
15.316766
15.303954
15.268082
15.180962
15.233489
15.484600
15.312922
15.160462
15.128433
15.134839
15.106653
15.016971
14.975973
14.961987
14.940207
14.818495
14.765966
14.773653
14.672441
14.618631
14.555853
14.522543
14.485389
14.421329
14.334820
14.351475
14.334820
14.346350
14.298946
14.329695
14.351475
14.364286
14.284854
14.236169
14.225920
14.201577
14.081146
14.049117
14.011963
13.954310
13.897204
13.849801
13.861332
13.737058
13.701184
13.656343
13.633283
13.544881
13.474417
13.361043
13.390511
13.298265
13.267517
13.202177
13.200896
13.179116
13.130431
13.063810
12.992064
13.007439
12.952348
12.940270
12.903116
12.864681
12.839058
12.823684
12.769875
12.710940
12.691722
12.691722
12.648162
12.652006
12.789092
12.868525
12.714784
12.541824
12.493140
12.414989
12.430965
12.401498
12.373312
12.387405
12.451464
12.477087
12.483494
12.433527
12.352814
12.386124
12.401498
12.378437
12.265694
12.187542
12.150388
12.079923
12.014583
11.963336
11.884878
11.728575
11.650423
11.594051
11.570991
11.512056
11.491557
11.368565
11.319463
11.302807
11.233624
11.151628
11.076039
11.099100
11.040166
10.960733
10.943542
10.966602
10.883326
10.764176
10.735991
10.742396
10.647590
10.554064
10.483599
10.529721
10.488724
10.409290
10.276017
10.315733
10.204271
10.229895
10.149180
10.155586
10.182491
10.227332
10.300360
10.214520
10.249112
10.231175
10.229895
10.149180
10.123557
10.094090
10.056935
10.021063
9.957004
9.898266
9.898266
9.853425
9.784241
9.775272
9.727869
9.650999
9.529286
9.502382
9.458822
9.418335
9.346589
9.374775
9.361963
9.386306
9.294061
9.233846
9.236408
9.287655
9.213346
9.162100
9.168506
9.178755
9.154412
9.041669
9.031420
9.048075
9.009640
8.890491
8.885071
8.824856
8.792827
8.689051
8.637804
8.680083
8.472532
8.389256
8.365281
8.396029
8.394749
8.376812
8.252538
8.252538
8.269193
8.216664
8.101358
8.060361
8.074454
8.079578
7.955305
7.921994
7.973029
7.967905
7.870535
7.812882
7.850036
7.851317
7.898721
7.934594
7.841068
7.815444
7.821850
7.837224
7.784696
7.727043
7.701420
7.753948
7.689889
7.698857
7.710388
7.798789
7.752667
7.716794
7.741136
7.833381
7.782134
7.682202
7.715513
7.744980
7.703982
7.742417
7.725762
7.762916
7.791102
7.771884
7.775728
7.719356
7.638642
7.630955
7.410593
7.245904
7.317650
7.194657
7.067820
7.075507
6.897424
6.759553
6.432853
6.370694
6.447564
6.423222
6.137519
5.905626
5.900984
5.940701
5.994510
5.915077
5.794647
5.781835
5.728025
5.666529
5.596065
5.637062
5.707527
5.619125
5.552505
5.533287
5.551223
5.533287
5.508945
5.410294
5.451727
5.506817
5.586250
5.608030
5.614436
5.647747
5.569595
5.752803
5.782270
5.851454
5.974447
5.989386
5.976574
6.034227
6.090599
6.139283
6.180281
6.296868
6.377582
6.426267
6.491124
6.530841
6.452689
6.274605
6.423222
6.395036
6.365569
6.370694
6.301510
6.350195
6.318165
6.069617
6.222077
6.429628
6.537247
6.550058
6.503936
6.363007
6.065773
5.832599
5.748524
5.754930
5.742118
5.640905
5.516632
5.584534
5.479477
5.487164
5.350079
5.363326
5.376137
5.341546
5.290298
5.260831
5.277487
5.232646
5.176274
5.114778
5.158338
5.139120
5.183961
5.149369
5.072498
5.063530
5.045594
5.087873
5.016127
5.039188
5.085310
5.096841
5.017408
5.025095
5.035345
5.034063
5.053281
4.991785
5.048156
5.054562
5.139120
5.116058
5.149369
5.158338
5.191648
5.154494
5.146807
5.209584
5.195491
5.213428
5.154494
5.154494
5.140401
5.155775
5.105809
5.110934
5.094278
5.094278
5.099403
5.112215
5.118621
5.145525
5.166024
5.172431
5.203178
5.294142
5.485037
5.464539
5.624686
5.509380
5.892452
6.033381
6.205904
6.230247
6.176437
5.866393
5.638343
5.594783
5.452572
5.438479
5.770740
5.537566
5.426103
5.118621
5.490162
5.588813
5.568314
5.244176
5.166024
5.207022
5.171149
5.117340
5.182680
5.080185
5.142963
5.224958
5.274924
5.271081
5.265956
5.273643
5.318484
5.274924
5.335140
5.569595
5.725899
5.738710
5.610593
5.609312
5.636216
5.628529
5.705400
5.738710
5.759209
5.718212
5.766896
5.432509
5.420979
5.345389
5.479913
5.095560
4.994347
5.326171
5.423541
5.442759
5.185242
4.836762
4.803152
4.831337
4.919738
5.024795
4.967142
4.944081
4.867210
4.914614
4.809557
4.949205
4.953049
4.712188
5.027357
4.837743
4.999171
5.014545
4.999171
5.088854
5.154194
5.086291
5.110634
5.063230
5.106790
5.009421
4.969704
4.906927
4.954330
4.877460
4.828775
4.790339
4.781372
4.740374
4.695532
4.690408
4.685283
4.678877
4.636599
4.643004
4.634036
4.648129
4.617381
4.639161
4.617381
4.631474
4.580226
4.594319
4.563571
4.568696
4.544353
4.535386
4.517449
4.558446
4.549479
4.549479
4.558446
4.567415
4.590476
4.580226
4.612256
4.623786
4.692970
4.733968
4.722437
4.701939
4.745499
4.750623
4.780090
4.787777
4.831337
4.873616
4.915895
4.990203
5.010702
5.100384
5.078604
5.119602
5.028638
5.024795
5.022233
4.933831
4.877460
4.853117
4.863367
4.842868
4.839025
4.813401
4.767279
4.760872
4.709625
4.696814
4.673752
4.673752
4.694252
4.708344
4.759592
4.813401
4.826212
4.818525
4.831337
4.833899
4.787777
4.786496
4.789058
4.753185
4.737812
4.694252
4.682721
4.666066
4.658379
4.653254
4.617381
4.616099
4.581508
4.582789
4.571259
4.549479
4.562290
4.548197
4.561009
4.554603
4.587914
4.575102
4.609694
4.590476
4.596882
4.631474
4.580226
4.593039
4.413673
4.505139
4.359085
4.360366
4.446205
4.551261
4.566636
4.552543
4.437237
4.567917
4.630694
4.629413
4.633257
4.635819
4.615320
4.602509
4.626851
4.603790
4.592259
4.602509
4.583291
4.594821
4.579447
4.555105
4.544856
4.553824
4.551261
4.543574
4.551261
4.553824
4.567917
4.560230
4.556386
4.560230
4.570479
4.567917
4.573041
4.565354
4.583291
4.576885
4.582010
4.588416
4.570479
4.583291
4.585853
4.598665
4.587134
4.603790
4.592259
4.590978
4.583291
4.603790
4.594821
4.615320
4.621726
4.621726
4.634538
4.614039
4.608914
4.615320
4.623007
4.634538
4.601227
4.605071
4.606352
4.614039
4.594821
4.601227
4.592259
4.603790
4.590978
4.605071
4.611477
4.607633
4.614039
4.614039
4.628132
4.644787
4.665286
4.694753
4.696034
4.698597
4.713971
4.731907
4.740876
4.740876
4.744719
4.765218
4.808778
4.918959
4.991986
5.085010
5.178536
5.263094
5.332277
5.384806
5.430928
5.467101
5.502974
5.546534
5.605468
5.669527
5.716930
5.752803
5.788676
5.827112
5.842486
5.848892
5.843767
5.832236
5.811738
5.775865
5.736148
5.695150
5.654153
5.631092
5.682339
5.797645
5.921919
6.007758
6.118784
6.168750
6.194374
6.202061
6.187968
6.164907
6.125190
6.099567
6.041914
5.997073
5.961200
5.948388
5.971449
6.004760
6.032946
6.085474
6.154657
6.225122
6.276369
6.305836
6.325054
6.327616
6.337866
6.362208
6.375020
6.366052
6.350677
6.349396
6.323773
6.313523
6.286619
6.264839
6.250746
6.225122
6.221279
6.232809
6.266120
6.310961
6.355802
6.385269
6.409612
6.437798
6.453970
6.452689
6.450127
6.447564
6.452689
6.412972
6.291261
6.339945
6.596181
6.682020
6.808856
6.874196
6.856260
6.585931
6.378381
6.575682
6.433471
6.210546
6.278449
6.556464
6.478312
6.380943
6.397598
6.287417
6.539809
6.742235
6.601305
6.588494
6.790920
6.899820
7.061248
7.102909
7.054224
7.164405
7.229745
7.250244
7.263056
7.115720
7.067036
7.070879
7.028600
7.017070
6.995290
6.977353
7.013226
6.978634
6.959417
6.932512
6.917138
6.908170
6.844111
6.767241
6.763397
6.754428
6.762115
6.746741
6.701900
6.722399
6.705744
6.707025
6.691651
6.627592
6.608375
6.573782
6.576345
6.522535
6.516129
6.519973
6.496912
6.490506
6.373919
6.389911
6.364288
6.380943
6.357882
6.283574
6.260512
6.190048
6.202859
6.186204
6.200297
6.205422
6.218234
6.233608
6.216952
6.240014
6.250263
6.268199
6.242576
6.250263
6.192610
6.213109
6.241295
6.209265
6.216952
6.220796
6.231045
6.195172
6.250263
6.269481
6.289979
6.297667
6.286136
6.284855
6.286136
6.300229
6.238732
6.241295
6.219515
6.233608
6.243857
6.240014
6.264356
6.292542
6.323290
6.359163
6.404004
6.375818
6.396317
6.404004
6.395036
6.439877
6.475750
6.544934
6.511623
6.519310
6.496249
6.518029
6.486000
6.392474
6.383505
6.387349
6.436034
6.486000
6.473188
6.428347
6.437315
6.409129
6.382224
6.333539
6.306635
6.231045
6.201578
6.143925
6.106771
6.081148
6.070898
6.065773
6.123426
6.248982
6.264356
6.371975
6.397598
6.343789
6.395036
6.494968
6.494968
6.359163
6.291261
6.069617
5.970966
5.968404
5.880003
5.925327
5.949669
5.916358
5.820271
5.734431
5.607595
5.612720
5.425668
5.377419
5.313360
5.223678
5.122465
5.019970
4.998190
4.961036
4.939256
4.882585
4.842868
4.826212
4.839025
4.846711
4.847992
4.864648
4.871054
4.873616
4.854398
4.833899
4.823650
4.814682
4.800589
4.792902
4.787777
4.809557
4.841587
4.862085
4.835181
4.789058
4.746779
4.691689
4.667346
4.646848
4.610975
4.599444
4.604569
4.654535
4.682721
4.735249
4.771122
4.796745
4.826212
4.855680
4.881303
4.892834
4.882585
4.888990
4.871054
4.868491
4.871054
4.863367
4.862085
4.847992
4.833899
4.810838
4.794183
4.790339
4.795465
4.789058
4.774965
4.759592
4.754467
4.699376
4.681439
4.663503
4.612256
4.619943
4.623786
4.622506
4.644286
4.641723
4.614819
4.585351
4.586633
4.577664
4.528980
4.498231
4.472608
4.444422
4.450828
4.443141
4.464921
4.486701
4.503356
4.468764
4.459796
4.436735
4.419300
4.407770
4.392395
4.368053
4.351398
4.341148
4.330899
4.319368
4.306557
4.293745
4.288620
4.277090
4.273246
4.271965
4.268121
4.254028
4.262997
4.264278
4.264278
4.259153
4.259153
4.252747
4.262997
4.270684
4.268121
4.270684
4.283495
4.291183
4.296307
4.297588
4.307838
4.311681
4.307838
4.303994
4.292464
4.268121
4.252747
4.255310
4.252747
4.241217
4.221999
4.206625
4.214312
4.206625
4.193813
4.183564
4.179720
4.178439
4.173314
4.174595
4.169471
4.165627
4.174595
4.168190
4.170752
4.169471
4.164346
4.166908
4.155378
4.152815
4.152815
4.143847
4.142566
4.131035
4.092600
4.046478
4.088757
4.115661
4.122067
4.129754
4.138722
4.138722
4.133598
4.152815
4.143847
4.155378
4.163065
4.181001
4.186126
4.216874
4.219437
4.219437
4.241217
4.227124
4.227124
4.216874
4.216874
4.204062
4.179720
4.151534
4.210468
4.266840
4.248904
4.277090
4.268121
4.120786
3.913235
4.358862
4.448544
4.330899
4.293745
4.214312
4.248904
4.237373
4.224561
4.221999
4.221999
4.213031
4.197657
4.324493
4.323212
4.318087
4.319368
4.312963
4.296307
4.302713
4.302713
4.269403
4.261715
4.269403
4.087475
4.254028
4.241217
4.186126
4.129754
4.127192
4.129754
4.147691
4.181001
4.228405
4.295026
4.347554
4.397520
4.442361
4.485921
4.502577
4.517951
4.543574
4.555105
4.534606
4.503858
4.471828
4.442361
4.418019
4.394958
4.371897
4.352679
4.343711
4.329618
4.321931
4.309119
4.292464
4.283495
4.280933
4.264278
4.410332
4.378303
4.402645
4.332180
4.264278
4.201500
4.123348
4.150253
4.193813
4.041353
4.234811
4.403926
4.377021
4.318087
4.364210
4.360366
4.366772
4.337305
4.247622
4.316806
4.353960
4.320650
4.306557
4.366772
4.435956
4.430831
4.553824
4.630694
4.634538
4.551261
4.464141
4.479516
4.441080
4.347554
4.230967
3.917079
3.870733
3.934792
3.759271
4.130812
3.989883
4.167966
4.431889
4.464141
4.459017
4.487203
4.405207
4.387271
4.270684
4.302713
4.282214
4.232248
4.201500
4.178439
4.132317
4.031104
4.088757
4.054165
3.977294
3.976013
3.996512
4.001637
4.006762
3.965764
3.970888
4.004199
3.984981
4.006762
3.987544
3.967045
3.987544
3.978575
3.991387
3.968326
3.982419
3.995231
3.992668
3.986263
4.013167
4.025979
4.033666
4.024698
4.024698
4.015729
3.978575
3.968326
3.952952
3.983700
4.002918
4.015729
4.050321
4.052884
4.060571
3.941421
4.048817
4.165404
4.161561
4.138499
4.133375
4.120563
4.116719
4.118001
4.133375
4.129531
4.124406
4.134656
4.142343
4.126969
4.134656
4.133375
4.150030
4.165404
4.167966
4.164123
4.165404
4.176935
4.169248
4.161561
4.165404
4.157717
4.157717
4.162842
4.160279
4.175653
4.161561
4.169248
4.173091
4.176935
4.184622
4.174372
4.174372
4.183341
4.203839
4.217932
4.230744
4.238431
4.257649
4.265336
4.278148
4.288397
4.183341
4.230744
4.294803
4.315302
4.312739
4.167966
4.152592
4.188465
4.246118
4.267898
4.280710
4.305052
4.319145
4.308896
4.298646
4.301209
4.298646
4.308896
4.297365
4.258930
4.256368
4.262774
4.271742
4.267898
4.246118
4.256368
4.264055
4.262774
4.225619
4.151311
4.156436
4.179497
4.228182
4.229463
4.228182
4.252524
4.260211
4.261492
4.246118
4.251243
4.269179
4.275585
4.255086
4.239712
4.265336
4.284554
4.283272
4.255086
4.247399
4.271742
4.269179
4.273023
4.251243
4.260211
4.266617
4.265336
4.233306
4.210245
4.220495
4.234588
4.233306
4.219213
4.214089
4.219213
4.176935
4.196152
4.197433
4.162842
4.133375
4.121844
4.130812
4.106470
4.109032
4.151311
4.173091
4.147468
4.146186
4.155155
4.146186
4.126969
4.132093
4.153873
4.153873
4.156436
4.148749
4.118001
4.160279
4.144905
4.164123
4.115438
4.112876
4.174372
4.184622
4.166685
4.150030
4.162842
4.184622
4.185903
4.193590
4.196152
4.208964
4.207683
4.187184
4.178216
4.165404
4.173091
4.158998
4.068035
4.034724
4.001413
4.032162
4.061629
4.065472
4.091096
4.091096
4.092377
4.105189
4.112876
4.174372
4.169248
4.134656
4.068035
4.044973
4.048817
4.106470
4.125688
4.144905
4.153873
4.151311
4.146186
4.142343
4.141062
4.138499
4.137218
4.124406
4.119282
4.023193
4.029599
3.978352
3.977071
3.438977
3.676932
3.761489
3.967759
3.678557
3.567095
3.737491
3.898919
3.880983
4.005257
3.973228
3.988602
3.992445
3.984758
3.971946
3.943760
3.929667
3.924543
3.918137
3.915575
3.927105
3.905325
3.915575
3.918137
3.945042
3.929667
3.937355
3.925824
3.923262
3.919418
3.911731
3.918137
3.924543
3.934792
3.951447
3.942479
3.956572
3.945042
3.934792
3.927105
3.895076
3.895076
3.907887
3.897638
3.979633
3.365950
3.956228
3.918137
3.886107
3.864327
3.865609
3.838704
3.828454
3.792582
3.778489
3.752865
3.811799
3.861765
3.868171
3.868171
3.887389
3.901482
3.915575
3.909169
3.919418
3.910450
3.892513
3.875858
3.859203
3.889951
3.882264
3.879702
3.877139
3.872015
3.878420
3.875858
3.870733
3.866890
3.872015
3.877139
3.866890
3.837423
3.868171
3.909169
3.933511
4.002695
4.014225
3.934792
3.905325
3.898919
3.842547
3.859203
3.851516
3.841266
3.833579
3.827173
3.825892
3.838704
3.834860
3.829736
3.816924
3.798987
3.802831
3.784894
3.787457
3.786176
3.688806
3.614498
3.822049
3.806674
3.782332
3.801550
3.804112
3.868171
3.864327
3.637559
3.684963
3.713149
3.873296
3.873296
3.769520
3.833579
3.693931
3.701618
3.699056
3.734929
3.737491
3.700337
3.855359
3.832298
3.798987
3.764396
3.765677
3.848953
3.414634
2.982534
3.022250
2.992783
3.241332
3.056842
3.373293
3.860140
4.094595
4.124406
4.071878
3.915575
3.545315
3.300610
3.069654
3.452726
3.306672
3.205459
3.087590
2.969722
3.384823
3.020969
2.819824
2.783639
2.565839
2.529966
3.137244
3.166711
3.150055
3.124432
3.105214
3.139806
3.165430
3.185928
3.205146
3.200021
2.727267
2.888695
2.974534
3.146212
3.216676
3.159024
3.180804
3.375542
3.384511
3.297391
3.278173
3.100090
3.420384
3.462662
3.456569
3.493723
3.282329
3.424540
3.473224
3.363043
3.329733
2.930006
2.547902
2.807981
2.966847
3.071904
3.030906
2.670895
3.106495
3.143650
3.098808
3.000158
2.834886
3.164148
3.238456
3.264080
3.380667
3.201303
3.461381
3.588530
3.610310
3.687181
3.643621
3.657714
3.628247
3.520628
3.492442
3.380980
3.474506
3.561626
3.562907
3.641059
3.694868
3.780707
3.802487
3.826829
3.876795
3.860140
3.911387
3.916512
3.920355
3.976727
3.764396
4.016788
4.088533
4.079565
4.118001
4.109032
4.037286
3.877139
3.850235
3.925824
3.882264
3.901482
3.909169
3.869452
3.978352
3.975790
4.170529
4.228182
4.170529
4.343488
4.278148
4.335801
4.393454
4.355018
4.278148
4.239712
4.424202
4.561288
4.505139
4.525638
4.601227
4.601227
4.561511
4.465423
4.470547
4.524357
4.533325
4.514107
4.520513
4.534606
4.560230
4.565354
4.552543
4.520513
4.605071
4.707565
4.725502
4.680660
4.502577
4.389833
4.494890
4.574323
4.406488
3.800492
3.303172
3.259268
4.040786
4.356299
4.342206
4.357581
4.380642
4.342206
4.269179
4.206402
4.184622
4.156436
4.133375
4.077003
4.055223
4.085971
4.191028
4.240993
4.425483
4.493385
4.520513
4.560230
4.561511
4.517951
4.538450
4.543574
4.524357
4.444924
4.377021
4.333461
4.289901
4.252747
4.224561
4.074664
3.988825
4.040072
4.093881
4.119505
4.054165
4.093881
4.151534
4.161784
4.255310
4.305275
4.387271
4.478234
4.592259
4.694753
4.789560
4.929209
4.890271
4.970985
4.910770
4.873616
4.874897
4.854398
4.841587
4.773685
4.701939
4.689126
4.675034
4.650692
4.617381
4.616099
4.621224
4.645566
4.604569
4.593039
4.608413
4.614819
4.582789
4.548197
4.625068
4.590476
4.487982
4.559728
4.663503
4.641723
4.826212
4.817245
4.818525
4.872335
4.783934
4.837743
4.881303
4.968423
5.058105
5.014545
4.942800
5.018389
5.059387
5.010702
4.949205
4.953049
4.995328
4.919738
5.097822
5.006858
5.027357
5.005577
4.845430
4.724999
4.321429
4.307838
4.664005
4.815184
4.319368
4.683223
4.538450
4.675536
4.729345
4.630694
4.614039
4.653756
4.790842
4.523076
3.800492
4.234588
4.579224
4.630694
4.273246
4.570479
4.603790
4.336024
3.943984
3.800492
3.383886
4.015162
4.329395
3.637559
4.202558
4.406265
4.261492
4.237150
4.156436
3.969384
4.148749
4.112876
4.185903
4.264055
4.311458
3.892513
4.196152
4.210245
4.146186
4.098783
4.068035
3.709305
4.038568
4.053942
4.091096
4.070597
4.126969
4.215370
4.265336
4.442138
4.174595
4.502577
4.359085
4.330899
4.338586
4.346273
4.456454
4.528200
4.378303
4.342430
4.264278
4.196375
4.107974
4.154097
4.156659
4.081069
4.106693
4.166908
4.125911
3.892737
4.056504
4.080846
4.075722
4.180778
4.249962
4.355018
4.393454
4.480574
4.489765
4.493608
4.457736
4.284777
4.359085
4.415457
4.374459
4.356523
4.318087
4.298870
4.260434
4.255310
4.262997
4.201500
4.170752
4.129754
4.186126
4.182282
4.008042
4.028542
4.070820
4.095162
4.219437
4.296307
4.341148
4.250185
4.245060
4.254028
4.286058
4.238654
4.241217
4.297588
4.266840
4.241217
4.132317
4.038791
3.993950
4.013167
3.963201
3.911954
3.911731
4.066753
4.036005
3.651652
3.693931
3.716992
3.609373
3.760552
3.910450
3.756709
3.889951
3.886107
4.106470
3.848953
3.355700
4.044630
4.011663
3.408229
3.195209
4.025412
3.608092
3.852797
3.878420
3.825892
3.852797
3.861765
3.825892
3.818205
3.854078
3.863046
3.916856
3.774645
3.822049
3.801550
3.782332
3.763114
3.974509
4.116719
4.019350
3.970665
4.169248
4.109032
4.144905
4.129531
4.085971
4.060348
4.024475
4.002695
3.923262
3.647809
3.786176
3.397979
3.579562
3.860140
4.077940
4.182059
4.251243
4.070597
4.201277
4.230744
4.212808
4.188465
4.150030
4.085971
4.048817
4.041130
4.038568
3.988602
3.977071
3.984758
3.966822
3.943760
3.956572
3.927105
3.854078
3.874577
3.936073
3.934792
4.019350
4.007819
4.011663
3.986039
3.948885
3.925824
3.859203
3.856640
3.842547
3.872015
3.856640
3.987320
3.919418
3.547877
3.996289
4.075722
4.036005
3.474850
3.303172
3.457850
3.475787
3.639777
3.729460
3.671807
3.689743
3.749959
3.746115
3.714086
3.623122
3.583406
3.691025
3.698712
3.693587
3.698712
3.600061
3.625684
3.703836
3.758927
3.778145
3.853734
3.799925
3.737147
3.712805
3.794800
3.780707
3.725616
3.708961
3.725616
3.737147
3.720492
3.667963
3.657714
3.662839
3.665401
3.661557
3.547533
3.675650
3.665401
3.689743
3.708961
3.737147
3.773020
3.820423
3.901138
3.931886
3.869108
3.857578
3.867827
3.734585
3.698712
3.712805
3.693587
3.683337
3.584687
3.543689
3.528315
3.630809
3.634653
3.592374
3.575719
3.537283
3.511660
3.515503
3.501410
3.524472
3.471943
3.450163
3.442476
3.436070
3.436070
3.404041
3.419415
3.368168
3.324608
3.327170
3.350231
3.305390
3.293860
3.339982
3.439914
3.470662
3.556501
3.619279
3.707680
3.810174
3.860140
3.867827
3.906262
3.855015
3.811455
3.820423
3.773020
3.826829
3.817861
3.774301
3.715367
3.680775
3.703836
3.511660
3.507816
3.516784
3.542408
3.543689
3.584687
3.597499
3.626966
3.628247
3.578281
3.637215
3.797362
3.846047
3.894732
3.998507
4.077003
4.091096
4.061629
4.139781
4.112876
4.051379
4.048817
4.047536
4.030880
3.833579
3.887389
4.133375
3.869452
4.262774
3.929667
3.746459
3.376199
3.018407
3.797362
3.049155
2.938974
2.831042
3.066779
3.130838
3.215395
3.101371
2.875884
3.009126
3.542095
3.723054
2.937693
2.520998
2.602993
3.016813
3.353762
2.938661
3.513910
3.837079
3.858859
3.428383
2.933849
2.456939
2.719580
3.316608
2.986065
3.599748
3.870389
3.748677
3.137556
3.083747
3.249019
3.760208
3.833235
3.840922
3.838360
3.577000
3.200334
3.734585
3.853734
3.751240
3.693587
3.592374
3.471943
3.141400
3.703836
3.719210
3.758927
3.552657
3.566750
3.527034
3.666682
3.776863
3.725616
3.670526
3.619279
3.632090
3.588530
3.534721
3.459131
3.482193
3.190084
3.418134
3.397635
3.366887
3.307953
3.224676
3.356637
3.400198
3.356637
3.334857
3.277205
3.311796
3.574437
3.416853
3.495004
3.445039
3.410447
3.470662
3.484755
3.446320
3.225957
3.401479
3.278486
3.079903
2.822387
2.355726
2.583837
2.923349
2.824698
2.849041
2.868258
3.093745
3.137244
3.182085
3.166711
3.116745
3.220520
3.266643
3.283298
3.264080
2.856666
3.234613
3.293547
3.121870
3.085997
3.170554
3.279454
3.265361
3.166711
3.143650
3.141087
3.130838
3.065498
3.094965
3.185928
3.328139
3.353762
3.392198
3.340951
3.413978
3.376824
3.338388
3.351200
3.347357
3.362731
3.288423
3.289704
3.247425
3.256393
3.242300
3.237175
3.203865
3.174398
3.189772
3.194896
3.192334
3.012969
2.857947
3.014251
3.028344
3.082153
3.192334
3.314046
3.360168
3.402447
3.398604
3.430633
3.431914
3.387073
3.335826
3.320452
3.349919
3.306359
3.271767
3.246144
3.244863
3.223083
3.221801
3.244863
3.287141
3.280735
3.269205
3.260237
3.248706
3.242300
3.265361
3.325577
3.366574
3.433195
3.389635
3.389635
2.823355
3.333264
3.325577
3.323014
3.419102
3.234613
3.279454
2.499218
3.226926
3.193615
3.265361
3.326858
3.239738
3.229488
3.251268
3.201303
3.201303
3.173116
3.074466
3.150055
3.083434
3.074466
2.992471
3.005282
3.065498
3.071904
3.106495
3.185928
3.279454
3.296109
3.290985
3.290985
3.412697
3.406291
3.356325
3.321733
3.396041
3.407572
3.356325
3.348638
3.296109
3.276892
3.233332
3.224364
3.232051
3.267924
3.269205
3.297391
3.315327
3.361449
3.285860
3.355044
3.380667
3.507504
3.507816
3.489880
3.322046
3.222114
3.348950
3.305390
3.307953
3.186241
3.260549
3.204177
3.146524
3.065810
3.000470
3.018407
2.972284
3.003033
3.004314
3.004314
2.987659
3.037624
3.019688
3.081184
3.085028
3.192647
3.156774
3.097840
3.159336
3.183679
3.181116
3.213145
3.255424
3.238769
3.197772
3.134994
3.184960
3.126026
3.146524
3.134994
3.146524
3.124744
3.238769
3.209302
3.315640
3.295141
3.273361
3.256706
3.234926
3.305390
3.263112
3.292578
3.223395
3.275923
3.183679
3.161899
3.151649
3.151649
3.092715
3.067091
3.091434
3.054280
3.044030
3.038906
3.081184
3.076060
3.136275
3.108089
3.160617
3.132432
3.104246
3.097840
3.079903
3.073497
3.054280
3.064529
3.160617
2.831355
3.390917
3.411415
3.466506
3.456569
3.133713
3.059404
2.826230
3.047561
3.016813
2.895101
2.647834
2.595306
3.134681
3.169273
3.366574
3.362731
3.344794
3.282017
3.340951
3.319171
3.307640
3.116745
3.066779
3.153899
3.096246
3.100090
3.105214
3.183366
3.180804
3.200021
3.292266
3.347357
3.349919
3.333264
3.320452
3.351200
3.283298
3.180804
2.939942
3.130838
3.034750
3.110339
3.074466
3.116745
3.121870
3.092402
3.041155
3.016813
3.114182
3.050124
3.082153
3.048842
3.106495
3.004001
3.015532
3.016813
3.167992
3.221801
3.184647
3.217958
3.206427
3.087278
3.132119
3.144931
3.132119
3.092402
3.078310
2.952754
2.961722
3.097527
3.123151
3.124432
3.208990
3.178241
3.128275
3.074466
3.066779
3.091121
3.161586
3.157743
3.193615
3.146212
3.205146
3.150055
3.169273
3.135962
3.087278
3.024500
3.001439
3.002720
2.966847
2.955317
2.988627
3.065498
3.087278
3.148774
3.223083
3.321733
3.405010
3.465225
3.460413
3.396354
3.357919
3.324608
3.297703
3.319483
3.407884
3.424540
3.374574
3.341263
3.378417
3.347669
3.310515
3.296422
3.315640
3.315640
3.348950
3.365606
3.372011
3.347669
3.313077
3.307953
3.332295
3.296422
3.236207
3.211864
3.143962
3.134994
3.191365
3.191365
3.238769
3.393791
3.452726
3.451444
3.361762
3.291297
3.283610
3.234926
3.193928
3.155493
3.072216
3.090153
3.081184
3.051717
3.078622
2.992783
3.033781
3.022250
2.928724
2.913038
2.938661
2.919444
2.915600
2.945067
2.941224
2.973253
3.024500
3.042437
3.056530
3.085997
3.159024
3.102652
3.132119
3.073185
2.992471
2.980940
3.001439
3.039874
3.014251
2.966847
2.937380
3.012969
3.019375
3.030906
3.056530
3.079591
3.123151
3.164148
3.221801
3.201303
3.203865
3.260237
3.378105
3.337107
3.262799
3.212833
3.179523
3.182085
3.155180
3.129557
3.102652
3.085997
3.071904
3.036031
2.914319
2.786201
2.778514
2.833605
2.784920
2.751609
2.741360
2.923287
3.070622
3.144931
2.955317
3.001439
3.000158
2.982221
2.945067
2.898945
2.957879
2.989908
2.937380
2.919444
2.883571
2.847698
2.814387
2.820793
2.796451
2.790045
3.044999
3.208990
3.270486
3.214114
3.220520
3.282017
3.221801
3.256393
3.194896
3.115463
3.206427
3.197459
3.226926
3.162867
3.162867
3.119307
3.111620
3.118026
3.100090
3.000158
3.274329
2.969409
2.895101
3.429352
3.411415
3.472912
3.492442
3.538564
3.577000
3.457850
3.329733
3.382261
3.240050
3.132432
3.416853
3.352794
3.437351
3.288735
3.366887
3.607748
3.774301
3.716648
3.684619
3.635934
3.752521
3.855015
3.787113
3.897294
4.001070
4.073159
4.194871
4.335801
4.437014
4.587134
4.696034
4.731907
4.858744
4.995830
5.014545
5.067074
4.886428
4.844149
5.087573
5.183661
5.249001
5.325871
5.359182
5.374556
5.369431
5.412992
5.437334
5.504255
5.641341
5.747679
6.015445
6.309680
6.269963
6.331460
6.432673
6.377100
6.448845
6.465501
6.424503
6.345070
6.377100
6.419378
6.333539
6.242576
6.105490
6.118302
5.981216
5.815944
5.512788
5.922764
5.984261
5.885610
5.926608
5.889454
5.959918
5.840769
5.785678
5.827957
5.876642
5.881767
5.902266
5.777991
5.786960
5.771585
5.605032
5.780554
5.847175
5.890735
5.833082
5.839488
5.902266
5.756211
5.713933
5.731869
5.703683
5.555067
5.532005
5.512788
5.405169
5.441477
5.396636
5.501693
5.586250
5.634935
5.550377
5.745116
5.563189
5.642622
5.683620
5.738710
5.786114
5.788676
5.843767
5.810456
5.657996
5.713087
5.737429
5.774583
5.664402
5.722055
5.752803
5.768178
5.845048
5.829674
5.895014
5.975728
5.935576
5.817708
5.747243
6.023977
6.029102
6.086755
6.080349
5.972730
6.000916
6.021415
6.108535
6.105973
6.117503
6.141846
6.157220
6.166188
6.125190
6.235372
6.280213
6.358365
6.428829
6.500093
6.546215
6.575682
6.625648
6.596181
6.644866
6.661521
6.702518
6.778108
6.712768
6.790920
6.806293
6.840886
6.863947
6.834480
6.922881
6.919037
7.013844
7.196434
7.225902
7.251525
7.286117
7.321990
7.327115
7.370675
7.437296
7.522638
7.538012
7.549543
7.470110
7.444486
7.321493
7.315087
7.259997
7.372740
7.434237
7.507264
7.837808
7.886492
7.985143
8.046056
8.166487
8.276668
8.331758
8.359944
8.436815
8.552333
8.640735
8.717605
8.757321
8.779101
8.823942
8.958467
9.133619
9.261737
9.274549
9.319390
9.348857
9.360388
9.414197
9.473131
9.620761
9.695069
9.757847
9.800126
9.857779
9.941055
10.014853
9.996917
10.043038
10.085318
10.153220
10.236496
10.292869
10.355646
10.412018
10.429955
10.458140
10.554032
10.580937
10.634747
10.646277
10.674463
10.706492
10.775676
10.817955
10.902513
10.981945
11.148529
10.856421
11.348393
11.490603
11.710221
11.546231
11.756344
11.469360
11.840901
12.006173
12.047588
12.088586
12.180830
12.192361
12.217984
12.215422
12.235921
12.270513
12.288449
12.311510
12.324322
12.366601
12.403755
12.440909
12.610024
12.770477
12.872972
12.888345
12.944717
12.940873
12.969059
13.094012
13.133728
13.147821
13.161914
13.179851
13.283626
13.283626
13.334873
13.377151
13.516800
13.669806
13.724897
13.202177
13.535283
12.834479
12.668661
13.498864
14.018287
14.095787
14.116286
14.152159
14.150878
14.168814
14.218780
14.234154
14.254653
14.282839
14.387896
14.403270
14.372521
14.396864
14.419925
14.445548
14.428893
14.462204
14.495514
14.703798
14.720454
14.770420
14.803730
14.826792
14.847290
14.875476
14.904943
14.925442
14.945941
14.981813
15.168256
15.199004
15.215659
15.219502
15.255376
15.270750
15.333528
15.334808
15.539797
15.660121
15.689589
15.719055
15.687026
15.738273
15.756209
15.795926
15.804894
15.858704
15.854860
15.885609
15.890733
15.907389
15.907389
15.922763
15.945824
15.930449
15.974010
16.117691
16.142035
16.153564
16.227873
16.252214
16.230434
16.094629
15.943451
15.730776
15.770493
16.162533
16.284245
16.417486
16.143314
16.493076
17.086071
17.071297
17.305752
17.009800
16.366648
17.082228
17.442837
17.455648
17.410809
17.234005
17.123823
17.191727
17.204538
17.153292
17.173790
17.043110
16.806091
16.923960
17.127668
17.087952
17.103325
17.150728
16.875277
17.032860
17.013643
16.761251
16.943178
17.301908
17.462055
17.355717
17.389029
17.308313
17.368528
17.545332
17.785683
17.410299
17.511511
17.580694
16.868361
16.367929
15.839485
15.971637
16.495638
16.695311
16.647907
16.637659
16.618441
16.295584
16.077784
16.093159
15.988102
16.134155
16.603067
16.802931
16.919518
17.046354
17.294220
17.318563
17.632452
18.013733
18.295000
18.213005
17.915771
17.476328
17.311647
17.348803
17.368019
17.392363
17.142532
17.214279
17.291149
17.366739
17.444891
17.485888
17.471794
17.560196
17.529448
17.667814
17.356489
17.318054
17.241182
17.241182
17.207872
17.175842
17.000322
16.917555
16.777906
16.657476
16.602385
16.583168
16.631851
16.638258
16.634415
16.689505
16.648508
16.702316
16.706160
16.785593
16.854776
16.943178
16.994425
17.007236
16.988020
17.003393
17.023891
17.041828
17.122543
17.099482
17.054640
17.030298
17.102043
17.073858
17.109732
17.081545
17.029016
17.031580
17.050797
17.090513
17.085388
17.052078
17.007236
17.077702
17.157135
17.132792
17.169947
17.148167
17.189163
17.226318
17.203257
17.070015
17.011080
17.046953
17.039267
17.109732
17.114857
17.137917
17.173790
17.054640
17.017487
17.039267
17.108450
17.100763
16.999550
17.030298
17.049517
17.103325
17.105888
17.053360
17.043110
17.105888
17.114857
17.096920
17.072577
17.086670
17.107168
17.118700
17.037985
17.141760
17.119980
17.159697
17.160978
17.216068
17.277565
17.260910
17.309595
17.310875
17.545332
17.893303
18.020138
18.201473
18.192505
18.191225
18.129728
17.467360
17.389799
17.602474
17.557634
17.529448
17.558914
17.575571
17.552509
17.561478
17.575571
17.455139
17.457703
17.223248
17.435923
17.571728
17.615288
17.626818
17.735718
17.649879
17.506388
17.435923
17.456421
17.417986
17.341116
17.307804
17.275776
17.270651
17.173281
17.122034
17.105379
17.150219
17.136127
17.102816
17.038757
17.031071
17.038757
17.024664
16.991354
16.926523
16.908587
16.886806
16.893211
16.798405
16.824028
16.840685
16.895775
16.932928
16.904743
16.873995
16.852215
16.962397
16.909868
16.811216
16.738190
16.501173
16.399359
16.394236
16.396797
16.298147
16.177715
16.018850
15.972728
15.983168
15.870424
15.802522
15.665436
15.659030
15.630844
15.592409
15.409201
15.243739
15.150213
14.999034
14.899102
14.546885
14.657066
14.426455
14.313040
14.196452
14.190046
14.166986
14.067054
13.913312
13.779336
13.931796
13.995855
13.740901
13.543600
13.556412
13.406514
13.161180
13.116339
13.182960
13.124025
13.098402
13.008719
12.885727
12.754500
12.710940
12.587947
12.590509
12.559761
12.639194
12.705815
12.591790
12.514920
12.490578
12.541824
12.548230
12.535419
12.630226
12.636632
12.650724
12.631507
12.632789
12.616133
12.644319
12.691722
12.772436
12.780124
12.783967
12.776280
12.753219
12.357335
12.003052
11.933868
11.977123
11.931001
11.995060
12.015558
11.987372
11.986092
12.059118
12.120615
12.125740
12.246170
12.414004
12.594650
12.635953
12.623141
12.632110
12.625704
12.618017
12.610330
12.697450
12.784570
12.820443
12.555240
12.502711
12.684638
12.764071
12.642360
12.443777
12.369469
12.368187
12.455307
12.503992
12.507835
12.478369
12.570613
12.507835
12.493743
12.365625
12.246475
12.284911
12.076079
11.950523
11.909221
11.965592
11.992497
11.933563
11.896409
11.923314
11.989935
11.907940
11.797758
11.740106
11.764448
11.693983
11.380095
11.117037
10.968420
10.911511
10.902543
10.760333
10.616841
10.477193
10.523315
10.428508
10.591187
10.833329
10.861515
10.856390
10.625778
10.445132
10.390041
10.153024
9.890383
9.772711
9.739400
9.744525
9.734275
9.775272
9.868798
9.771429
9.567722
9.398607
9.359401
9.461895
9.399117
9.432428
9.450364
9.486238
9.327372
9.328652
9.251782
9.324809
9.331215
9.409367
9.379900
9.262032
9.301748
9.282531
9.255626
9.208222
9.319684
9.354277
9.401680
9.341464
9.361963
9.475988
9.569514
9.581044
9.575920
9.632292
9.723255
9.595138
9.440115
9.524673
9.581044
9.713006
9.656634
9.680976
9.755284
9.912869
9.852654
9.746316
9.691226
9.779627
9.832155
9.689944
9.643822
9.565670
9.697632
9.673289
9.493924
9.449083
9.557983
9.627167
9.629729
9.687382
9.782189
9.846248
9.909026
9.882121
9.930806
9.985386
10.022540
9.921327
9.952075
9.986667
10.109660
10.183969
10.062257
10.160907
10.155783
10.091723
9.866237
9.999478
9.762461
9.684309
9.704808
9.643312
9.567722
9.452416
9.486238
9.269718
9.199254
9.196692
9.246657
9.100603
9.044231
9.023732
9.114697
9.228721
9.100603
9.236408
9.338902
9.424741
9.397837
9.470863
9.545172
9.628448
9.709162
9.707881
9.742473
9.797564
9.782189
9.725818
9.762972
9.777064
9.759129
9.800126
9.724536
9.730942
9.709162
9.768096
9.697632
9.800126
9.765534
9.779627
9.803969
9.797564
9.816781
9.823187
9.873153
9.893652
9.973084
10.068663
10.084037
10.087880
10.055851
10.091723
10.087880
10.050726
9.894423
9.779117
9.912358
10.068663
9.957200
10.030227
10.016134
10.032789
10.075068
10.108378
10.121190
10.093004
10.105817
10.066100
10.144252
10.150658
10.081474
10.072506
10.132721
10.163469
10.072506
10.154501
10.265964
10.255714
10.259558
10.369739
10.353084
10.415861
10.459421
10.533533
10.542501
10.588624
10.578375
10.571969
10.621935
10.577093
10.662932
10.705212
10.776958
10.723147
10.760302
10.671901
10.746209
10.796175
10.830767
10.810267
10.848703
10.887138
10.797456
10.856390
10.888419
10.912762
10.828204
10.794893
10.794893
10.852547
10.800018
10.833329
10.888419
10.896107
10.919168
10.882013
10.924293
10.958884
11.089595
11.071659
11.071659
11.049879
10.948666
11.011443
10.984539
11.061409
11.167747
11.143405
11.022974
11.081908
11.142123
11.163903
11.129312
11.134437
11.135717
11.049879
11.053722
10.971727
10.999913
11.010162
11.067815
10.984539
10.946103
10.937136
11.055003
11.026817
11.051160
11.133155
11.197214
11.166466
11.053722
10.965322
10.974289
10.912793
10.810299
10.867951
10.962759
11.115219
11.165185
11.233088
11.163903
10.973008
10.979414
10.934573
10.864108
10.834641
10.894856
10.920480
11.029380
11.049879
11.117782
11.412452
11.321488
11.172872
11.078065
10.929448
10.910231
10.634777
10.550220
10.614279
10.598905
10.632215
10.498973
10.525878
10.495130
10.492567
10.390073
10.313171
10.322140
10.126120
10.106901
9.999283
10.083840
10.006969
9.994158
9.928818
9.962324
9.937983
9.875205
9.823957
9.794491
9.797052
9.649717
9.511351
9.442167
9.561827
9.449083
9.467020
9.534923
9.618198
9.550296
9.502892
9.405523
9.500330
9.687382
9.736067
9.891089
9.850092
9.802688
9.732224
9.765534
9.828312
9.911588
9.955148
10.069943
10.135283
10.224966
10.345396
10.335147
10.423549
10.505544
10.728272
10.751333
10.756458
10.789769
10.792331
10.816673
10.779519
10.871764
11.017818
11.220275
11.210026
11.138280
11.071659
10.928167
10.966602
10.935854
11.008882
11.037067
11.035786
10.960196
11.101126
11.063972
11.047317
11.017849
10.974289
10.947385
10.917917
10.951228
10.971727
11.053722
11.069097
11.163903
11.131874
11.210026
11.163903
11.243337
11.256148
11.195933
11.229243
11.183121
11.184402
11.226681
11.267679
11.279209
11.292021
11.204901
11.160060
11.217713
11.231806
11.281772
11.252305
11.358643
11.443200
11.507259
11.480891
11.547512
11.429644
11.445018
11.338680
11.363023
11.329712
11.360460
11.400177
11.336118
11.240029
11.183658
11.260529
11.229780
11.252841
11.163159
11.179814
11.047853
11.147785
11.050415
10.905643
10.721897
10.710367
10.656557
10.574562
10.610435
10.561750
10.612997
10.536127
10.542533
10.583530
10.610435
10.636059
10.586093
10.627090
10.602748
10.624528
10.697556
10.621965
10.523315
10.497691
10.606591
10.614279
10.700117
10.764176
10.835922
10.865389
10.998631
11.040911
11.122906
11.165185
11.215151
11.297146
11.325332
11.467543
11.885743
11.749938
11.712784
11.854995
12.002330
12.143676
12.036057
11.951500
11.986092
11.983529
11.995060
12.045026
12.029652
12.061681
12.093710
12.135989
12.106522
12.105241
12.166738
12.251295
12.251295
12.197486
12.200047
12.244889
12.178267
12.278200
12.244889
12.216703
12.202610
12.174424
12.217984
12.198767
12.206453
12.129583
12.171862
12.135989
12.109084
12.148801
12.114209
12.110366
12.148801
12.146238
12.173143
12.258982
12.248733
12.287168
12.343540
12.401193
12.506249
12.733323
12.812756
12.902438
12.906281
12.935749
12.933187
12.976747
13.159352
13.149102
13.160633
13.186256
13.250316
13.242628
13.249034
13.282345
13.309250
13.366902
13.345122
13.411744
13.443773
13.502707
13.705680
13.818423
13.888888
13.958072
13.977289
14.126535
14.198281
14.229030
14.249528
14.252090
14.287964
14.235435
14.305900
14.368678
14.349460
14.373802
14.366116
14.355865
14.385333
14.407113
14.423768
14.431456
14.398145
14.448111
14.457079
14.472453
14.598742
14.539808
14.546214
14.579524
14.592336
14.620522
14.511621
14.515466
14.500092
14.471906
14.496248
14.411690
14.377098
14.448844
14.489841
14.386066
14.346350
14.348912
14.284854
14.325851
14.313040
14.041430
14.052960
14.054242
14.052960
14.059366
13.936374
13.843395
13.888236
13.833146
13.565380
13.424450
13.443039
13.462256
13.477631
13.444320
13.076622
12.994627
12.948504
12.614852
12.517483
12.536700
12.561043
12.625101
12.628944
12.659693
12.696847
12.730158
12.914647
12.903116
12.977425
12.787810
13.029953
12.503389
12.758344
13.040202
12.933865
12.730158
12.563604
12.535419
12.491858
12.379115
12.232383
12.205478
12.082485
11.867248
11.588926
11.661954
11.719606
11.719606
11.806726
11.672203
11.717044
11.572271
11.449278
11.556480
11.379678
11.365585
11.684598
11.744813
10.832616
10.331139
11.058816
11.598223
11.916491
11.981831
12.169300
12.229515
12.235921
11.336535
12.065107
12.214141
12.405036
12.237202
12.168018
12.103960
12.142395
12.118052
12.337133
12.346102
12.316635
12.305104
12.221828
12.237202
12.429379
12.621555
13.113832
13.418150
13.258002
12.335555
12.279786
13.068991
13.619294
13.771020
13.372574
13.710805
13.435351
13.526315
13.685181
13.935011
14.110532
13.811366
14.609539
14.812698
14.619241
13.954310
14.089381
13.541038
13.552568
13.558974
13.840833
13.339892
13.633934
13.904263
13.988820
14.257215
14.431456
14.366116
14.439142
14.489108
14.742233
15.015124
14.817213
14.689095
15.199004
15.375807
14.936363
15.165693
15.626917
16.129032
16.599413
16.660719
16.676094
16.673531
16.672251
17.028418
17.596579
18.102135
18.588388
18.716942
17.935423
18.122042
18.374434
18.161757
18.306530
17.773561
18.173288
18.457708
18.612732
18.742565
18.906555
19.002644
18.780048
19.049097
18.552000
18.430288
18.121195
18.172441
19.010330
18.881262
19.576941
19.678612
20.121899
20.377972
20.465092
20.540682
19.879866
19.378654
18.876595
18.376478
17.875208
18.658854
19.142292
19.097780
19.334799
19.334799
18.584028
18.376478
18.546545
19.161510
19.662781
20.164177
20.663673
21.084173
21.371769
21.529354
21.955395
22.132196
21.462961
20.883049
20.381418
19.879866
19.545206
19.572111
19.723291
19.921873
20.037178
20.174265
20.521463
21.149513
21.667721
22.148853
22.404627
22.505838
22.494308
22.472528
22.501995
22.592958
22.803068
22.945278
23.009338
23.234726
23.171949
22.609512
22.385305
22.099703
22.462275
23.004213
21.989521
22.671110
23.170765
23.212946
23.182198
23.566551
24.104385
24.378958
24.464796
24.330273
24.418674
23.611532
23.412951
23.454828
23.960894
23.939114
24.115915
24.636475
23.988218
23.446260
23.201155
23.321587
23.484295
23.567572
23.713627
23.848150
23.899397
23.996767
24.171007
24.681316
25.110529
25.413151
25.434931
25.470804
25.496428
25.487459
25.487459
25.495148
25.496428
25.523333
25.507959
25.543831
25.795160
25.809254
25.805410
25.970682
25.997587
26.105206
26.413340
26.428715
26.454338
26.451775
26.485086
26.481241
26.495335
26.506866
26.472275
26.477398
26.486366
26.478680
26.421026
26.465868
26.468430
26.488930
26.527365
26.554270
26.835445
26.870037
26.925127
27.039152
27.050682
27.334223
27.381626
27.436716
27.540493
27.504620
27.516150
27.509745
27.545616
27.704643
27.754610
27.693113
27.723862
27.698238
27.671333
27.664927
27.600868
27.752047
27.816105
27.882727
27.887852
27.908350
27.913475
27.552183
27.219078
27.371538
28.062092
28.262537
28.230507
28.210009
28.247164
28.244600
28.231789
28.221539
28.218977
28.244600
28.248444
28.235632
28.234352
28.270224
28.299692
28.271505
28.263819
28.304815
28.316347
28.349657
28.417559
28.400904
28.411154
28.408592
28.382967
28.389374
28.391935
28.407310
28.427809
28.486744
28.500835
28.539270
28.509804
28.490587
28.493149
28.467525
28.430370
28.407310
28.384249
28.350939
28.333002
28.324034
28.352219
28.347095
28.335564
28.315065
28.326595
28.347095
28.313784
28.300972
28.343252
28.345814
28.350939
28.466244
28.476494
28.513647
28.553364
28.839712
28.858929
28.881990
28.851242
28.832024
28.848679
28.837149
28.826899
28.793589
28.803839
28.799995
28.784620
28.758997
28.803839
28.823055
28.828180
28.807682
28.842274
28.855085
28.878147
28.875584
28.846117
28.848679
28.860210
29.002420
28.899927
28.751310
28.156843
27.951857
27.642448
27.669352
27.791063
27.798752
27.852560
27.857685
27.892277
27.905088
27.829500
27.873060
27.862810
27.915339
27.867935
27.884590
27.883308
27.856403
27.842312
27.890995
27.839748
27.866653
27.861528
27.887152
27.856403
27.912775
27.837187
27.776972
27.830780
27.847435
27.849998
27.867935
27.801313
27.852560
27.807720
27.768003
27.755192
27.841030
27.853842
27.824375
27.824375
27.902527
27.892277
27.934555
27.985804
28.013988
28.084454
28.104952
28.122889
28.242039
28.226664
28.203604
28.186947
28.171574
28.167730
28.184385
28.192072
28.213852
28.167730
28.198479
28.244600
28.295847
28.333002
28.368876
28.381687
28.366312
28.389374
28.400904
28.390656
28.406029
28.395779
28.390656
28.379124
28.343252
28.293285
28.193354
28.106234
28.089579
28.061392
28.057549
28.026800
28.093422
28.074203
28.053705
28.048580
28.081892
28.097265
28.080610
28.129295
28.152355
28.215134
28.143387
28.129295
28.139544
28.177979
28.171574
28.186947
28.248444
28.230507
28.236914
28.242039
28.271505
28.306097
28.368876
28.384249
28.408592
28.409872
28.372719
28.353500
28.372719
28.359907
28.334284
28.377844
28.390656
28.412436
28.398342
28.361187
28.363750
28.327877
28.293285
28.257412
28.271505
28.248444
28.265099
28.201040
28.215134
28.189510
28.252287
28.258694
28.416279
28.372719
28.385530
28.394499
28.381687
28.370155
28.370155
28.399624
28.376562
28.345814
28.344532
28.333002
28.338127
28.308659
28.284317
28.281755
28.295847
28.297129
28.289442
28.277912
28.240757
28.242039
28.239475
28.243319
28.215134
28.249725
28.254850
28.239475
28.206165
28.233070
28.268944
28.317627
28.366312
28.382967
28.400904
28.394499
28.397060
28.389374
28.390656
28.338127
28.329159
28.322752
28.345814
28.341970
28.321472
28.321472
28.315065
28.331720
28.286879
28.280474
28.266380
28.244600
28.283035
28.344532
28.398342
28.426527
28.462400
28.470087
28.452150
28.416279
28.393217
28.334284
28.321472
28.265099
28.289442
28.274067
28.261255
28.253569
28.279192
28.268944
28.259975
28.222820
28.252287
28.259975
28.263819
28.276630
28.306097
28.350939
28.406029
28.479055
28.550802
28.719280
28.700064
28.682127
28.618067
28.560415
28.510448
28.442547
28.454077
28.442547
28.468170
28.416924
28.450233
28.480982
28.445108
28.409235
28.451515
28.492512
28.589882
28.683407
28.718000
28.728249
28.709032
28.668034
28.665472
28.639847
28.598850
28.545040
28.546322
28.514292
28.519417
28.439983
28.450233
28.482264
28.469452
28.422049
28.446390
28.433578
28.411798
28.413080
28.442547
28.442547
28.411798
28.468170
28.465607
28.480982
28.501480
28.474575
28.510448
28.521980
28.524542
28.520699
28.529667
28.548883
28.583475
28.596287
28.624474
28.698782
28.691095
28.743624
28.743624
28.751310
28.712875
28.660347
28.642410
28.583475
28.552727
28.465607
28.470732
28.402830
28.384893
28.355427
28.384893
28.419485
28.405392
28.383612
28.411798
28.409235
28.434860
28.457920
28.601412
28.529667
28.502762
28.513012
28.525824
28.528385
28.557852
28.497637
28.516855
28.480982
28.501480
28.420767
28.446390
28.423328
28.475857
28.477139
28.506605
28.497637
28.498919
28.493793
28.495075
28.509167
28.463045
28.441265
28.437422
28.411798
28.432297
28.363113
28.443829
28.423328
28.404112
28.318272
28.377207
28.337490
28.425892
28.443829
28.552727
28.562977
28.614223
28.592443
28.602694
28.545040
28.551447
28.525824
28.484825
28.469452
28.450233
28.366957
28.343895
28.277275
28.302898
28.282400
28.301617
28.217060
28.228590
28.233715
28.254213
28.297773
28.404112
28.398987
28.431015
28.410517
28.427172
28.405392
28.364395
28.349020
28.324678
28.291368
28.245245
28.193998
28.185030
28.164532
28.146595
28.119690
28.154282
28.115847
28.172218
28.138908
28.164532
28.183748
28.231152
28.275993
28.193998
28.219622
28.213215
28.195280
28.193998
28.179905
28.183748
28.163250
28.154282
28.141470
28.100471
28.079973
28.054350
27.866653
27.835905
27.844873
27.834623
27.844873
27.759035
27.762878
27.752628
27.770565
27.747503
27.707788
27.710350
27.680883
27.650135
27.643728
27.651415
27.689852
27.645010
27.633480
27.686008
27.718037
27.723162
27.734692
27.728287
27.653978
27.696257
27.664228
27.648853
27.614262
27.612980
27.583513
27.589920
27.556608
27.463781
27.420221
27.449690
27.362570
27.375381
27.376661
27.393318
27.392036
27.397161
27.401005
27.425346
27.442001
27.442001
27.494530
27.536810
27.570120
27.676458
27.679020
27.700800
27.682863
27.691832
27.636742
27.639303
27.594461
27.540653
27.511187
27.497093
27.517591
27.476593
27.447126
27.466345
27.515030
27.600868
27.612398
27.573963
27.570120
27.573963
27.563713
27.559870
27.567558
27.627773
27.667490
27.731548
27.744360
27.731548
27.732830
27.696957
27.643147
27.617523
27.582932
27.539371
27.480438
27.467627
27.415098
27.436878
27.340790
27.293386
27.258795
27.230608
27.149895
27.175518
27.153738
27.112740
27.055086
26.897341
26.896061
26.844812
26.838408
26.847376
26.881968
26.852501
26.780754
26.743601
26.720539
26.748726
26.755131
26.840969
26.866592
26.902466
26.846094
26.858906
26.834564
26.778193
26.751287
26.724382
26.717978
26.668011
26.682104
26.682104
26.761538
26.792286
26.828157
26.862749
26.839689
26.853781
26.814066
26.905029
26.858906
26.817909
26.825596
26.826878
26.792286
26.830721
26.805098
26.862749
26.799973
26.837126
26.792286
26.811502
26.802534
26.848658
26.924246
26.963963
26.958838
26.938339
26.911434
26.888372
26.901186
26.896061
26.926809
26.881968
26.921684
26.898623
26.910152
26.935778
26.906309
26.915277
26.930653
26.906309
26.928089
26.994711
27.045958
27.049801
26.425869
25.923246
25.421709
24.920116
24.753345
24.940397
25.071077
24.972427
25.276066
25.449024
25.454149
25.536144
25.593798
25.704197
24.966240
24.497110
23.920315
24.044571
24.422518
24.507076
23.830614
23.415514
24.028795
24.209843
23.416794
23.130692
23.117880
23.673910
23.258808
23.243435
23.452267
23.931427
23.019228
23.411530
23.359001
23.255226
23.617798
23.867367
23.032040
22.887268
22.387869
21.887026
21.387371
20.885612
20.383982
19.882429
19.382498
18.880438
18.380322
17.877771
17.380239
16.876047
16.378180
15.848454
15.347704
14.846574
14.348303
14.666644
14.699955
14.744796
14.916473
15.126587
15.628199
16.127750
16.628881
17.129631
17.656794
18.157225
18.658854
19.160229
19.620501
20.162895
20.663673
21.164886
21.666439
22.168070
22.669830
23.169485
23.670326
24.163319
24.517324
24.513481
24.471203
24.475046
24.425081
24.373833
24.326429
24.341805
24.331554
24.327711
24.368710
24.386644
24.417393
24.419956
24.428925
24.444298
24.436611
24.400738
24.382801
23.867769
23.416794
23.000011
22.387869
22.116358
23.111832
22.590294
22.599262
22.396837
22.431526
22.614735
22.318783
23.001650
22.127888
22.663420
22.264975
21.902401
21.502678
22.148853
22.276508
21.894718
21.924185
21.985682
22.058708
22.311100
22.404627
22.341848
22.476372
22.664705
23.169485
22.814501
22.423742
22.510960
22.459713
21.889589
22.346973
22.649330
23.145142
23.312878
23.189886
22.678696
22.390430
22.603205
22.911968
22.950403
22.888906
22.288034
21.889589
22.202200
21.388653
22.106573
22.109955
22.106112
22.126612
22.089457
22.152235
22.017712
22.072802
22.138142
22.149672
22.226543
22.304695
22.303413
22.289320
22.350817
22.399502
22.431530
22.431530
22.423843
22.402063
22.367472
22.326475
22.299570
22.263697
22.209887
22.135578
22.074083
22.059990
22.052303
21.571861
21.600048
21.569300
21.391214
20.913797
21.002790
21.410204
21.448639
21.420454
21.376894
21.401236
21.396111
21.360239
21.370487
21.337177
21.315397
21.294899
21.587006
21.975893
21.117504
20.886892
20.395512
20.605013
20.587076
20.875341
21.135420
21.666439
21.948988
21.227686
21.409613
21.154659
21.991268
21.513390
20.966326
20.385263
19.883709
19.383780
18.882999
18.420038
18.449175
18.233938
18.096851
18.786125
18.772032
18.973177
19.158947
19.661499
20.162895
20.663673
21.140545
21.139875
20.783709
21.112970
20.687620
21.187279
20.768335
20.751678
20.586407
20.509537
20.359026
20.168131
20.000298
19.923155
19.880875
19.871906
19.752758
19.625921
19.591330
19.505491
19.412127
19.626083
19.859257
19.688860
19.462091
19.253260
19.720890
19.881037
19.955345
20.075775
20.439468
20.094831
19.383780
18.882999
19.430887
19.646124
19.581242
18.882999
18.380322
18.447895
18.687475
18.584980
18.477362
18.481205
19.044924
19.397577
19.392452
19.338642
19.313019
19.147747
18.867168
18.922260
18.950445
18.963257
18.874857
18.900480
18.809517
18.772362
18.817204
18.783894
18.780048
18.776205
18.764675
18.799267
18.777487
18.749300
18.731365
18.768518
18.753145
18.713428
18.715990
18.713428
18.753145
18.745457
18.700617
18.640402
18.625027
18.640402
18.691648
18.721115
18.676273
18.685242
18.694210
18.662182
18.637838
18.709585
18.764675
18.776205
18.785173
18.769800
18.769800
18.737770
18.753145
18.806953
18.844109
18.895355
18.960695
18.983757
18.905605
18.838984
18.822329
18.781330
18.780048
18.718554
18.700617
18.687805
18.692928
18.672430
18.660900
18.722397
18.768518
18.864607
18.941477
18.935072
19.191307
19.415512
19.354017
19.087532
19.068314
19.055502
18.973507
18.846670
19.008099
18.454630
17.881615
18.127165
18.090012
17.888866
18.036201
17.378958
16.876047
16.376898
15.852297
15.715402
15.840957
15.958825
15.979324
15.978043
16.071569
16.165094
16.135628
15.792273
15.784585
15.849925
15.905016
15.746150
15.486072
15.502727
15.487352
15.432261
15.393637
15.392355
15.497412
15.514067
15.469226
15.501255
15.397480
15.556346
15.827955
16.049599
16.189438
16.061319
16.422611
16.531511
16.592817
16.430107
16.396797
16.632534
16.745277
16.526196
16.298147
16.310959
16.514666
16.342987
16.303270
15.893294
15.429699
15.274487
15.347514
15.382106
15.171993
15.063093
14.902946
14.745467
14.616069
15.090104
15.437303
15.626917
16.018850
16.259901
16.345741
16.247089
16.286806
16.234278
16.212498
16.216341
16.199686
16.108723
16.079256
16.193281
16.180470
16.248371
16.302181
16.093349
15.821739
15.582159
15.352829
14.846574
14.349584
13.854378
13.801116
13.836989
13.884393
13.948452
13.967669
13.916422
13.875424
14.138066
14.118848
14.317430
14.481421
14.653832
14.693549
14.705080
14.683300
14.784513
14.657676
14.534683
14.683300
14.520590
14.656395
14.120863
14.145205
14.347631
14.366849
13.929968
13.833146
13.949733
14.514731
14.723016
14.769138
14.733266
14.714047
14.729422
14.744796
14.872913
14.924161
14.962596
15.013844
15.123415
15.101635
15.174662
15.186193
14.432860
14.452688
14.623084
14.533401
13.850534
13.466729
13.686462
13.357200
13.148368
13.031781
13.343107
14.088752
14.104755
13.435981
12.842167
12.341961
11.842905
11.342940
11.136254
11.406583
11.456549
11.471923
11.657693
11.916491
11.977987
12.170581
12.148801
12.019402
11.954062
12.005309
11.971998
11.933563
12.064243
12.398630
12.495999
12.634672
12.141419
11.842905
11.353190
11.151628
11.142660
11.149066
11.223374
11.134974
11.058103
10.967139
10.885888
10.856421
10.729585
10.583530
10.655276
10.623247
10.607873
10.491285
10.402884
10.222207
10.063341
9.969815
9.837854
9.666372
9.639468
9.493414
9.461385
9.573358
9.775784
9.874434
9.984615
10.189093
10.182687
10.304399
10.483764
10.627059
10.532252
10.445132
10.363137
10.302921
10.226051
10.187615
10.227332
10.232457
10.336232
