1530522523.000000, IBI
16.141364,0.921917
17.094532,0.953169
17.969573,0.875040
18.922741,0.953169
19.875910,0.953169
20.985336,1.109426
25.469916,0.906291
26.469962,1.000046
27.407505,0.937543
28.532556,1.125051
41.580028,0.843789
42.455068,0.875040
43.361360,0.906291
44.330154,0.968794
45.361451,1.031297
46.173989,0.812537
51.361726,0.906291
52.330520,0.968794
53.174309,0.843789
54.111852,0.937543
71.065753,0.843789
72.190804,1.125051
73.034593,0.843789
82.566279,0.968794
83.613202,1.046923
84.628874,1.015671
85.691422,1.062549
86.722720,1.031297
87.738391,1.015671
88.675934,0.937543
89.644728,0.968794
90.566646,0.921917
91.488563,0.921917
92.379229,0.890666
93.379274,1.000046
94.426197,1.046923
95.410617,0.984420
96.395037,0.984420
97.348206,0.953169
98.317000,0.968794
110.426930,1.031297
111.333221,0.906291
112.317641,0.984420
113.333313,1.015671
114.348984,1.015671
115.411533,1.062549
116.536584,1.125051
117.583507,1.046923
118.614805,1.031297
119.630476,1.015671
120.599270,0.968794
121.708696,1.109426
122.614988,0.906291
126.490165,0.984420
127.490211,1.000046
128.552759,1.062549
129.521554,0.968794
130.474722,0.953169
131.521645,1.046923
132.334183,0.812537
137.662551,0.937543
138.568843,0.906291
139.537637,0.968794
154.710207,0.875040
155.632124,0.921917
156.569667,0.937543
157.522835,0.953169
158.429127,0.906291
159.491676,1.062549
160.507347,1.015671
161.413639,0.906291
186.430409,0.937543
187.258572,0.828163
211.212793,0.671906
211.947202,0.734409
212.712862,0.765660
213.587902,0.875040
255.089802,0.796911
278.215860,0.937543
279.106526,0.890666
294.513481,1.062549
295.451024,0.937543
296.341690,0.890666
297.232356,0.890666
297.966764,0.734409
311.404879,0.843789
337.499824,0.796911
338.218607,0.718783
338.984267,0.765660
339.874933,0.890666
340.828101,0.953169
341.859398,1.031297
342.828193,0.968794
343.875116,1.046923
344.906413,1.031297
345.859581,0.953169
346.750247,0.890666
347.531533,0.781286
348.437824,0.906291
349.437870,1.000046
350.453542,1.015671
351.422336,0.968794
352.438008,1.015671
353.484931,1.046923
354.453725,0.968794
355.391268,0.937543
356.344436,0.953169
377.095386,0.953169
378.126683,1.031297
379.220484,1.093800
380.220529,1.000046
381.236201,1.015671
382.236247,1.000046
383.236292,1.000046
384.173835,0.937543
385.142630,0.968794
385.986418,0.843789
386.955213,0.968794
387.924007,0.968794
388.861550,0.937543
389.845970,0.984420
390.924144,1.078174
391.892939,0.968794
392.924236,1.031297
393.924282,1.000046
394.861825,0.937543
395.877496,1.015671
396.861916,0.984420
397.830710,0.968794
398.799505,0.968794
399.799551,1.000046
400.768345,0.968794
401.690262,0.921917
402.659056,0.968794
403.627851,0.968794
404.534142,0.906291
405.471685,0.937543
406.456105,0.984420
407.378022,0.921917
408.331191,0.953169
409.315611,0.984420
410.300031,0.984420
411.253200,0.953169
412.253246,1.000046
413.284543,1.031297
414.284589,1.000046
415.237757,0.953169
416.237803,1.000046
417.269100,1.031297
418.206643,0.937543
419.206689,1.000046
420.222360,1.015671
421.206780,0.984420
422.159949,0.953169
423.159995,1.000046
424.160041,1.000046
425.097584,0.937543
426.113255,1.015671
427.160178,1.046923
428.160224,1.000046
429.160269,1.000046
430.222818,1.062549
431.191612,0.968794
432.144781,0.953169
433.129201,0.984420
434.082370,0.953169
435.019913,0.937543
435.941830,0.921917
436.926250,0.984420
437.910670,0.984420
438.848213,0.937543
439.832633,0.984420
440.863930,1.031297
441.801473,0.937543
442.785893,0.984420
443.754688,0.968794
444.739108,0.984420
445.629773,0.890666
446.598568,0.968794
447.598614,1.000046
448.598659,1.000046
449.708085,1.109426
450.817511,1.109426
451.786305,0.968794
452.833228,1.046923
457.536568,0.890666
458.474111,0.937543
459.442906,0.968794
460.474203,1.031297
461.442997,0.968794
462.474294,1.031297
463.521217,1.046923
464.536889,1.015671
465.505683,0.968794
466.521355,1.015671
467.521400,1.000046
468.427692,0.906291
469.396486,0.968794
470.396532,1.000046
471.412204,1.015671
472.396624,0.984420
473.427921,1.031297
474.474844,1.046923
475.428012,0.953169
476.412432,0.984420
477.365601,0.953169
478.318770,0.953169
479.350067,1.031297
480.381364,1.031297
481.365784,0.984420
482.365830,1.000046
483.381501,1.015671
484.381547,1.000046
485.303464,0.921917
486.303510,1.000046
487.334807,1.031297
488.319227,0.984420
489.319273,1.000046
490.334945,1.015671
491.366242,1.031297
492.319411,0.953169
493.319456,1.000046
494.319502,1.000046
495.272671,0.953169
496.194588,0.921917
497.194634,1.000046
498.257182,1.062549
499.241602,0.984420
500.335402,1.093800
501.429203,1.093800
502.382371,0.953169
503.382417,1.000046
504.382463,1.000046
505.366883,0.984420
506.273174,0.906291
507.226343,0.953169
508.179512,0.953169
509.210809,1.031297
510.179603,0.968794
511.210900,1.031297
512.242198,1.031297
513.226618,0.984420
514.132909,0.906291
515.039201,0.906291
515.992369,0.953169
516.898661,0.906291
517.804952,0.906291
518.804998,1.000046
519.789418,0.984420
520.742587,0.953169
521.680130,0.937543
522.586421,0.906291
523.523964,0.937543
524.399004,0.875040
525.320921,0.921917
526.227213,0.906291
527.086627,0.859414
527.914790,0.828163
528.821081,0.906291
529.696121,0.875040
530.711793,1.015671
531.727464,1.015671
532.711884,0.984420
533.727556,1.015671
534.711976,0.984420
535.633893,0.921917
536.571436,0.937543
537.508979,0.937543
538.415271,0.906291
539.368439,0.953169
540.415362,1.046923
541.509162,1.093800
542.540459,1.031297
543.618634,1.078174
544.712434,1.093800
545.696854,0.984420
550.462697,0.984420
551.478369,1.015671
552.447163,0.968794
553.462834,1.015671
562.978895,1.046923
564.041444,1.062549
565.010238,0.968794
566.010284,1.000046
566.979078,0.968794
567.932247,0.953169
568.901041,0.968794
569.901087,1.000046
570.869881,0.968794
571.854301,0.984420
572.838721,0.984420
573.885644,1.046923
574.838813,0.953169
575.885736,1.046923
576.963910,1.078174
578.010833,1.046923
582.886056,0.984420
583.901728,1.015671
584.917399,1.015671
585.901819,0.984420
586.917491,1.015671
587.933162,1.015671
588.901957,0.968794
589.870751,0.968794
590.855171,0.984420
591.823965,0.968794
592.745883,0.921917
593.792805,1.046923
594.933483,1.140677
595.980406,1.046923
597.042954,1.062549
598.136754,1.093800
608.324721,1.093800
609.356018,1.031297
610.449818,1.093800
611.434238,0.984420
619.997130,0.937543
620.981550,0.984420
621.981596,1.000046
622.934764,0.953169
623.919184,0.984420
624.903605,0.984420
625.825522,0.921917
626.809942,0.984420
627.841239,1.031297
628.810033,0.968794
629.794453,0.984420
630.794499,1.000046
631.810171,1.015671
632.732088,0.921917
633.716508,0.984420
634.685302,0.968794
635.607219,0.921917
636.591640,0.984420
637.544808,0.953169
638.513602,0.968794
639.498023,0.984420
640.498068,1.000046
641.482488,0.984420
642.388780,0.906291
643.326323,0.937543
644.248240,0.921917
645.201409,0.953169
646.107700,0.906291
647.076494,0.968794
648.076540,1.000046
648.998457,0.921917
649.998503,1.000046
651.014175,1.015671
667.889947,0.906291
668.811864,0.921917
669.765033,0.953169
670.702576,0.937543
671.718247,1.015671
680.531151,0.796911
681.406191,0.875040
682.156225,0.750034
683.031265,0.875040
683.906305,0.875040
684.703217,0.796911
685.562631,0.859414
686.422045,0.859414
687.297086,0.875040
688.109623,0.812537
688.953411,0.843789
689.703446,0.750034
690.578486,0.875040
691.547280,0.968794
700.657072,0.953169
701.610241,0.953169
702.563409,0.953169
703.438449,0.875040
704.313489,0.875040
705.172904,0.859414
706.126072,0.953169
707.047990,0.921917
708.063661,1.015671
714.110813,0.781286
715.001479,0.890666
715.939022,0.937543
716.860939,0.921917
717.782856,0.921917
718.751650,0.968794
719.704819,0.953169
720.642362,0.937543
721.439273,0.796911
722.314313,0.875040
723.236231,0.921917
724.126896,0.890666
725.080065,0.953169
726.111362,1.031297
727.142659,1.031297
728.095828,0.953169
729.095874,1.000046
730.064668,0.968794
731.049088,0.984420
731.924128,0.875040
743.034012,0.921917
744.002806,0.968794
744.893472,0.890666
745.831015,0.937543
746.752932,0.921917
747.721726,0.968794
748.674895,0.953169
749.565561,0.890666
750.503104,0.937543
751.487524,0.984420
752.471944,0.984420
753.440738,0.968794
754.440784,1.000046
755.503333,1.062549
756.534630,1.031297
757.503424,0.968794
772.019714,0.968794
773.035385,1.015671
783.207726,0.953169
784.004637,0.796911
784.895303,0.890666
785.801594,0.906291
786.770389,0.968794
812.896585,1.031297
813.959133,1.062549
815.037308,1.078174
816.037354,1.000046
816.990522,0.953169
818.006194,1.015671
849.913904,0.953169
850.820196,0.906291
873.711869,0.921917
874.758791,1.046923
875.821340,1.062549
876.868263,1.046923
877.868309,1.000046
878.868355,1.000046
879.962155,1.093800
881.009078,1.046923
882.009123,1.000046
882.946666,0.937543
883.837332,0.890666
884.806126,0.968794
885.853049,1.046923
886.759341,0.906291
887.743761,0.984420
888.759432,1.015671
889.790730,1.031297
915.526283,0.984420
916.463825,0.937543
923.276637,1.109426
924.464192,1.187554
934.949047,0.968794
935.886590,0.937543
936.871010,0.984420
937.855430,0.984420
945.387024,0.906291
946.402696,1.015671
947.387116,0.984420
948.355910,0.968794
949.324705,0.968794
950.277873,0.953169
951.231042,0.953169
952.277965,1.046923
973.653943,0.875040
974.528983,0.875040
975.591532,1.062549
976.700958,1.109426
977.997892,1.296934
979.122944,1.125051
1079.377533,0.546900
1079.861930,0.484397
1297.778155,0.750034
1429.487309,0.562526
1430.081086,0.593777
1430.581109,0.500023
1431.174886,0.593777
1431.721786,0.546900
1432.268686,0.546900
1432.815586,0.546900
1433.424989,0.609403
1437.315792,0.687531
1438.018949,0.703157
1438.597100,0.578151
1439.253381,0.656280
1439.815906,0.562526
1440.440935,0.625029
1440.987835,0.546900
1441.565986,0.578151
1442.144138,0.578151
1442.816044,0.671906
1449.972621,0.656280
1450.675778,0.703157
1451.207053,0.531274
1791.957026,0.593777
1792.597680,0.640654
1798.769837,0.671906
1815.317470,0.859414
1816.098756,0.781286
2024.155154,0.687531
2024.827060,0.671906
2025.498966,0.671906
2026.139620,0.640654
2026.733397,0.593777
2027.436554,0.703157
2028.045957,0.609403
2028.717863,0.671906
2029.374143,0.656280
2029.999172,0.625029
2030.624200,0.625029
2031.264855,0.640654
2031.858632,0.593777
2107.643351,0.609403
2108.284005,0.640654
2590.524829,0.625029
2835.223530,0.687531
2835.864185,0.640654
2836.551716,0.687531
2837.207996,0.656280
2934.462448,0.734409
2935.196856,0.734409
2935.915639,0.718783
2936.650048,0.734409
2937.400082,0.750034
2938.118865,0.718783
2938.868900,0.750034
2945.603583,0.828163
2946.384869,0.781286
2956.182192,0.781286
2956.979104,0.796911
2957.807266,0.828163
2958.619804,0.812537
2959.432341,0.812537
2960.182375,0.750034
2960.963661,0.781286
2961.744947,0.781286
2962.541858,0.796911
2963.432524,0.890666
2964.229435,0.796911
2965.088850,0.859414
2965.979516,0.890666
2966.823304,0.843789
2967.698344,0.875040
2968.526507,0.828163
2969.370296,0.843789
2970.151582,0.781286
2970.948493,0.796911
2971.729779,0.781286
2972.526690,0.796911
2973.307976,0.781286
2974.151765,0.843789
2974.979928,0.828163
2975.854968,0.875040
2976.745633,0.890666
2977.667551,0.921917
2978.526965,0.859414
2979.402005,0.875040
2980.198916,0.796911
2980.995828,0.796911
2981.792739,0.796911
2982.542774,0.750034
2983.370937,0.828163
2984.292854,0.921917
2985.246022,0.953169
2986.292945,1.046923
2987.339868,1.046923
2988.371166,1.031297
2989.371211,1.000046
2990.277503,0.906291
2991.183794,0.906291
2992.058834,0.875040
2992.886997,0.828163
2993.762037,0.875040
2994.637077,0.875040
2995.496492,0.859414
2996.355906,0.859414
2997.215320,0.859414
2998.121612,0.906291
2999.012278,0.890666
2999.981072,0.968794
3000.965492,0.984420
3001.903035,0.937543
3002.840578,0.937543
3003.746869,0.906291
3004.590658,0.843789
3005.450072,0.859414
3006.325112,0.875040
3007.153275,0.828163
3008.043941,0.890666
3008.965858,0.921917
3009.872150,0.906291
3016.700587,0.843789
3017.513124,0.812537
3018.341287,0.828163
3019.122573,0.781286
3019.950736,0.828163
3020.810150,0.859414
3021.700816,0.890666
3022.591482,0.890666
3023.466522,0.875040
3024.341562,0.875040
3025.169725,0.828163
3025.951011,0.781286
3026.763548,0.812537
3027.576085,0.812537
3028.341745,0.765660
3029.154282,0.812537
3029.998071,0.843789
3030.888737,0.890666
3031.763777,0.875040
3032.654443,0.890666
3033.513857,0.859414
3034.373271,0.859414
3035.232686,0.859414
3035.998346,0.765660
3036.779631,0.781286
3037.529666,0.750034
3038.264074,0.734409
3039.014109,0.750034
3039.748517,0.734409
3040.514177,0.765660
3041.326715,0.812537
3042.108000,0.781286
3042.936163,0.828163
3043.795578,0.859414
3044.686243,0.890666
3045.561283,0.875040
3046.467575,0.906291
3047.342615,0.875040
3048.170778,0.828163
3048.967689,0.796911
3049.733349,0.765660
3050.514635,0.781286
3051.342798,0.828163
3052.217838,0.875040
3053.233510,1.015671
3054.280432,1.046923
3055.280478,1.000046
3056.218021,0.937543
3057.124313,0.906291
3058.014978,0.890666
3058.827516,0.812537
3059.624427,0.796911
3060.405713,0.781286
3061.155747,0.750034
3061.905782,0.750034
3062.640190,0.734409
3063.405850,0.765660
3064.187136,0.781286
3064.952796,0.765660
3065.765333,0.812537
3066.609122,0.843789
3067.468536,0.859414
3068.343576,0.875040
3069.234242,0.890666
3070.078031,0.843789
3070.890568,0.812537
3071.703105,0.812537
3072.515642,0.812537
3073.343805,0.828163
3081.203540,0.812537
3081.953574,0.750034
3082.656731,0.703157
3083.391140,0.734409
3084.109923,0.718783
3163.691691,0.781286
3164.504228,0.812537
3165.269888,0.765660
3166.082425,0.812537
3166.801208,0.718783
3167.566868,0.765660
3168.332528,0.765660
3169.113814,0.781286
3169.832597,0.718783
3569.522767,0.781286
3570.335304,0.812537
3660.651939,0.937543
3836.425610,0.718783
3875.318015,0.765660
3876.114926,0.796911
3876.833709,0.718783
3919.007515,0.843789
3919.866929,0.859414
3920.741969,0.875040
3921.617009,0.875040
4063.045358,0.765660
4063.842269,0.796911
4491.189956,0.625029
4534.910707,0.796911
4535.629490,0.718783
4536.363899,0.734409
4537.082681,0.718783
4537.770213,0.687531
4538.442119,0.671906
4539.114024,0.671906
4539.817182,0.703157
4540.489087,0.671906
4551.786479,0.781286
4552.552140,0.765660
4553.286548,0.734409
4554.020957,0.734409
4554.755365,0.734409
4555.458523,0.703157
4556.271060,0.812537
4568.193480,0.796911
4568.990392,0.796911
4569.756052,0.765660
4570.521712,0.765660
4571.287372,0.765660
4572.084284,0.796911
4572.834318,0.750034
4573.646855,0.812537
4609.382866,0.812537
4610.179777,0.796911
4610.992315,0.812537
4611.789226,0.796911
4612.664266,0.875040
4613.429926,0.765660
4614.195586,0.765660
4614.929995,0.734409
4893.286486,0.765660
4896.833524,0.656280
4897.521055,0.687531
4898.192961,0.671906
4898.849241,0.656280
4899.552398,0.703157
4900.302433,0.750034
4901.068093,0.765660
4901.802501,0.734409
4902.583787,0.781286
4903.349447,0.765660
4904.052604,0.703157
4904.740136,0.687531
4905.427667,0.687531
4906.115199,0.687531
4978.571640,0.781286
4979.337300,0.765660
4980.118586,0.781286
5113.734077,0.781286
5114.468486,0.734409
5115.234146,0.765660
5116.077935,0.843789
5117.109232,1.031297
5118.078026,0.968794
5118.953066,0.875040
5119.828106,0.875040
5120.703146,0.875040
5121.578187,0.875040
5122.359472,0.781286
5123.140758,0.781286
5123.922044,0.781286
5124.672078,0.750034
5125.375235,0.703157
5126.109644,0.734409
5126.875304,0.765660
5127.687841,0.812537
5134.266267,0.765660
5135.031927,0.765660
5135.766336,0.734409
5136.531996,0.765660
5137.328907,0.796911
5138.157070,0.828163
5138.985233,0.828163
5139.829022,0.843789
5140.657185,0.828163
5164.408272,0.765660
5165.173932,0.765660
5165.955218,0.781286
5166.783381,0.828163
5194.112757,0.875040
5195.050300,0.937543
5195.940965,0.890666
5196.800380,0.859414
5197.628543,0.828163
5198.441080,0.812537
5199.222366,0.781286
5199.956774,0.734409
5200.691183,0.734409
5213.441767,0.750034
5214.238678,0.796911
5215.035589,0.796911
5215.832501,0.796911
5216.613787,0.781286
5217.363821,0.750034
5218.082604,0.718783
5218.801387,0.718783
5219.535795,0.734409
5220.285830,0.750034
5221.082741,0.796911
5221.864027,0.781286
5222.614061,0.750034
5223.379721,0.765660
5224.176633,0.796911
5224.989170,0.812537
5225.817333,0.828163
5226.582993,0.765660
5227.348653,0.765660
5228.145565,0.796911
5228.879973,0.734409
5229.630008,0.750034
5230.411293,0.781286
5231.286333,0.875040
5232.192625,0.906291
5233.098916,0.906291
5233.864576,0.765660
5234.708365,0.843789
5235.442774,0.734409
5236.130305,0.687531
5236.817837,0.687531
5237.520994,0.703157
5238.255402,0.734409
5239.036688,0.781286
5249.037146,0.750034
5249.834057,0.796911
5250.599717,0.765660
5251.318500,0.718783
5252.068535,0.750034
5252.881072,0.812537
5253.646732,0.765660
5264.865995,0.875040
5265.772287,0.906291
5266.600450,0.828163
5267.381736,0.781286
5268.163021,0.781286
5268.975559,0.812537
5269.788096,0.812537
5270.569381,0.781286
5271.366293,0.796911
5272.116327,0.750034
5272.897613,0.781286
5273.694525,0.796911
5274.507062,0.812537
5275.303973,0.796911
5276.100885,0.796911
5276.913422,0.812537
5277.694708,0.781286
5278.522871,0.828163
5279.319782,0.796911
5280.085442,0.765660
5280.851102,0.765660
5281.569885,0.718783
5282.335545,0.765660
5283.116831,0.781286
5283.944994,0.828163
5284.851285,0.906291
5285.804454,0.953169
5286.632617,0.828163
5287.476405,0.843789
5288.320194,0.843789
5289.163983,0.843789
5289.992146,0.828163
5299.601960,0.875040
5300.461375,0.859414
5301.273912,0.812537
5302.055198,0.781286
5302.789606,0.734409
5303.508389,0.718783
5304.242798,0.734409
5304.992832,0.750034
5305.680364,0.687531
5322.149868,0.906291
5323.040533,0.890666
5323.915573,0.875040
5324.774988,0.859414
5325.603151,0.828163
5326.400062,0.796911
5327.181348,0.781286
5328.040762,0.859414
5328.837674,0.796911
5329.665837,0.828163
5330.493999,0.828163
5331.306537,0.812537
5332.087822,0.781286
5332.884734,0.796911
5333.666020,0.781286
5334.431680,0.765660
5335.197340,0.765660
5335.947374,0.750034
5336.759911,0.812537
5337.666203,0.906291
5338.588120,0.921917
5339.510037,0.921917
5350.776178,0.906291
5351.713721,0.937543
5352.526258,0.812537
5353.323169,0.796911
5354.104455,0.781286
5354.854490,0.750034
5355.635775,0.781286
5356.417061,0.781286
5357.245224,0.828163
5358.073387,0.828163
5358.948427,0.875040
5359.901596,0.953169
5360.776636,0.875040
5361.682927,0.906291
5362.448587,0.765660
5363.292376,0.843789
5364.136164,0.843789
5364.964327,0.828163
5365.823742,0.859414
5366.667530,0.843789
5367.495693,0.828163
5368.292605,0.796911
5369.105142,0.812537
5369.886428,0.781286
5370.605211,0.718783
5371.308368,0.703157
5371.995899,0.687531
5372.761559,0.765660
5373.511594,0.750034
5374.339756,0.828163
5375.261674,0.921917
5376.183591,0.921917
5377.027380,0.843789
5377.824291,0.796911
5378.652454,0.828163
5384.965243,0.812537
5385.887160,0.921917
5386.777826,0.890666
5387.699743,0.921917
5388.543532,0.843789
5389.402946,0.859414
5390.215483,0.812537
5390.981143,0.765660
5391.746803,0.765660
5392.512463,0.765660
5393.356252,0.843789
5394.215666,0.859414
5395.012578,0.796911
5395.793864,0.781286
5396.559524,0.765660
5397.340809,0.781286
5398.200224,0.859414
5399.090889,0.890666
5399.997181,0.906291
5400.934724,0.937543
5401.841015,0.906291
5402.653553,0.812537
5403.434838,0.781286
5404.169247,0.734409
5418.216765,0.812537
5418.982425,0.765660
5474.484966,0.781286
5475.313128,0.828163
5482.797846,0.953169
5483.782266,0.984420
5484.672932,0.890666
5485.485469,0.812537
5486.282381,0.796911
5487.063666,0.781286
5487.860578,0.796911
5488.688741,0.828163
5489.579406,0.890666
5490.501324,0.921917
5491.391989,0.890666
5492.251404,0.859414
5515.939988,0.812537
5516.721274,0.781286
5517.502560,0.781286
5518.315097,0.812537
5519.237014,0.921917
5520.174557,0.937543
5520.987094,0.812537
5521.862134,0.875040
5522.612169,0.750034
5523.362203,0.750034
5524.096611,0.734409
5524.877897,0.781286
5525.581054,0.703157
5526.409217,0.828163
5527.143626,0.734409
5575.505215,0.890666
5576.349003,0.843789
5577.208418,0.859414
5578.099083,0.890666
5578.927246,0.828163
5579.786661,0.859414
5580.708578,0.921917
5581.583618,0.875040
5582.396155,0.812537
5583.364949,0.968794
5584.333744,0.968794
5585.224410,0.890666
5586.130701,0.906291
5587.021367,0.890666
5587.802653,0.781286
5588.615190,0.812537
5592.584121,0.875040
5599.771950,0.859414
5600.615739,0.843789
5601.459528,0.843789
5602.318942,0.859414
5603.115854,0.796911
5603.975268,0.859414
5607.584808,0.703157
5608.381720,0.796911
5616.616472,0.703157
5617.444634,0.828163
5621.179180,0.859414
5622.069846,0.890666
5623.007389,0.937543
5623.882429,0.875040
5624.757469,0.875040
5625.820018,1.062549
5629.351429,0.796911
5630.163967,0.812537
5631.039007,0.875040
5631.851544,0.812537
5632.679707,0.828163
5633.570373,0.890666
5634.476664,0.906291
5635.351704,0.875040
5636.242370,0.890666
5637.070533,0.828163
5637.851819,0.781286
5638.633104,0.781286
5662.977969,0.843789
5663.712377,0.734409
5664.431160,0.718783
5665.118692,0.687531
5665.899977,0.781286
5666.478129,0.578151
5667.212538,0.734409
5667.946946,0.734409
5668.853238,0.906291
5669.900161,1.046923
5670.931458,1.031297
5671.931504,1.000046
5672.900298,0.968794
5673.790964,0.890666
5674.666004,0.875040
5675.431664,0.765660
5676.166072,0.734409
5682.260101,0.812537
5683.088264,0.828163
5683.900801,0.812537
5684.697713,0.796911
5685.541502,0.843789
5686.338413,0.796911
5687.135324,0.796911
5687.916610,0.781286
5688.713522,0.796911
5689.385427,0.671906
5690.088585,0.703157
5690.791742,0.703157
5691.541776,0.750034
5692.354313,0.812537
5693.213728,0.859414
5694.151271,0.937543
5695.073188,0.921917
5695.948228,0.875040
5696.792017,0.843789
5697.635805,0.843789
5698.432717,0.796911
5699.151500,0.718783
5699.854657,0.703157
5700.557814,0.703157
5701.260971,0.703157
5702.057883,0.796911
5702.917297,0.859414
5710.323886,0.734409
5711.058295,0.734409
5711.792703,0.734409
5712.558363,0.765660
5713.370900,0.812537
5714.199063,0.828163
5715.058478,0.859414
5715.839763,0.781286
5716.605423,0.765660
5717.386709,0.781286
5718.199246,0.812537
5719.011784,0.812537
5719.886824,0.875040
5720.652484,0.765660
5721.480647,0.828163
5722.324435,0.843789
5723.199475,0.875040
5728.512218,0.703157
5729.277879,0.765660
5730.043539,0.765660
5730.902953,0.859414
5731.731116,0.828163
5732.590530,0.859414
5733.543699,0.953169
5734.481242,0.937543
5735.371907,0.890666
5736.262573,0.890666
5737.106362,0.843789
5737.918899,0.812537
5738.715811,0.796911
5739.528348,0.812537
5740.262756,0.734409
5740.997165,0.734409
5741.778451,0.781286
5742.606614,0.828163
5743.544157,0.937543
5744.544202,1.000046
5745.403617,0.859414
5746.294282,0.890666
5747.044317,0.750034
5747.950608,0.906291
5748.872525,0.921917
5749.763191,0.890666
5750.669483,0.906291
5751.575774,0.906291
5752.388311,0.812537
5753.263351,0.875040
5777.561339,0.765660
5778.467630,0.906291
5779.405173,0.937543
5780.373967,0.968794
5781.202130,0.828163
5785.061682,0.796911
5785.874219,0.812537
5786.686756,0.812537
5787.499294,0.812537
5788.280579,0.781286
5789.046239,0.765660
5789.827525,0.781286
5790.561934,0.734409
5791.296342,0.734409
5792.030751,0.734409
5792.796411,0.765660
5793.733954,0.937543
5794.546491,0.812537
5795.437157,0.890666
5796.280946,0.843789
5797.140360,0.859414
5798.015400,0.875040
5798.874814,0.859414
5869.128030,0.859414
5872.878202,0.796911
5873.737616,0.859414
5874.643908,0.906291
5875.565825,0.921917
5876.565871,1.000046
5883.113045,0.765660
5883.894331,0.781286
5916.911467,0.718783
5917.661502,0.750034
5918.411536,0.750034
5919.161570,0.750034
5919.927230,0.765660
5920.677265,0.750034
5933.068457,0.953169
5966.804376,0.781286
5967.585662,0.781286
5968.398199,0.812537
5969.241988,0.843789
5970.054525,0.812537
5970.835811,0.781286
5971.617096,0.781286
5972.367131,0.750034
5973.164042,0.796911
5973.929702,0.765660
5974.695362,0.765660
5975.429771,0.734409
5976.179805,0.750034
5976.945465,0.765660
5977.726751,0.781286
5978.601791,0.875040
5979.476831,0.875040
5980.367497,0.890666
5981.211286,0.843789
5982.039448,0.828163
5982.789483,0.750034
5983.492640,0.703157
5984.195797,0.703157
5984.898954,0.703157
5985.602112,0.703157
5986.336520,0.734409
5987.117806,0.781286
5987.977220,0.859414
5988.883512,0.906291
5989.774178,0.890666
5990.680469,0.906291
5991.602386,0.921917
5992.524303,0.921917
5993.430595,0.906291
5994.290009,0.859414
5995.133798,0.843789
5995.977587,0.843789
5996.868252,0.890666
5997.618287,0.750034
5998.430824,0.812537
5999.212110,0.781286
5999.930892,0.718783
6818.296478,0.656280
6818.999635,0.703157
6819.640289,0.640654
6966.881404,0.859414
6967.725193,0.843789
6968.568981,0.843789
6969.397144,0.828163
7050.478981,0.906291
7051.338395,0.859414
7052.182184,0.843789
7053.010346,0.828163
7053.776006,0.765660
7054.541667,0.765660
7055.291701,0.750034
7056.041735,0.750034
7056.791770,0.750034
7057.541804,0.750034
7058.307464,0.765660
7059.073124,0.765660
7059.838784,0.765660
7060.651321,0.812537
7061.495110,0.843789
7062.323273,0.828163
7063.198313,0.875040
7064.010850,0.812537
7064.823387,0.812537
7065.589047,0.765660
7066.354707,0.765660
7072.933133,0.859414
7081.246014,0.765660
7082.011674,0.765660
7082.808585,0.796911
7083.621123,0.812537
7158.077656,0.750034
7158.796439,0.718783
7159.483970,0.687531
7160.187127,0.703157
7160.890285,0.703157
7161.624693,0.734409
7162.405979,0.781286
7163.171639,0.765660
7163.984176,0.812537
7176.078480,0.781286
7176.891017,0.812537
7177.672303,0.781286
7178.469214,0.796911
7182.188134,0.750034
7182.969420,0.781286
7183.750706,0.781286
7184.594495,0.843789
7185.438283,0.843789
7211.642608,0.781286
7212.408268,0.765660
7213.158302,0.750034
7213.955214,0.796911
7214.720874,0.765660
7215.486534,0.765660
7216.236568,0.750034
7216.986602,0.750034
7217.799139,0.812537
7328.710466,0.796911
7329.491752,0.781286
7330.257412,0.765660
7331.023072,0.765660
7331.788732,0.765660
7332.491889,0.703157
7340.429753,0.656280
7341.304793,0.875040
7371.259289,0.781286
7372.103078,0.843789
7372.915615,0.812537
7373.759403,0.843789
7374.462561,0.703157
7375.259472,0.796911
7376.040758,0.781286
7376.822044,0.781286
7377.572078,0.750034
7378.353364,0.781286
7405.229594,0.734409
7405.964003,0.734409
7406.807791,0.843789
7407.667206,0.859414
7408.557871,0.890666
7409.401660,0.843789
7417.683289,0.890666
7418.605206,0.921917
7419.511498,0.906291
7420.402164,0.890666
7433.637144,0.796911
7434.387179,0.750034
7435.152839,0.765660
7435.840370,0.687531
7436.543527,0.703157
7437.215433,0.671906
7437.902965,0.687531
7438.574870,0.671906
7439.278028,0.703157
7440.012436,0.734409
7440.809348,0.796911
7441.590633,0.781286
7442.418796,0.828163
7443.278211,0.859414
7444.106374,0.828163
7444.950162,0.843789
7445.747074,0.796911
7446.559611,0.812537
7447.294019,0.734409
7448.012802,0.718783
7448.731585,0.718783
7449.450368,0.718783
7450.200402,0.750034
7450.950437,0.750034
7451.762974,0.812537
7452.544260,0.781286
7453.372423,0.828163
7454.200586,0.828163
7455.060000,0.859414
7455.903789,0.843789
7456.700700,0.796911
7457.497612,0.796911
7458.294523,0.796911
7459.091434,0.796911
7459.872720,0.781286
7460.607129,0.734409
7461.388415,0.781286
7462.185326,0.796911
7468.373109,0.750034
7469.138769,0.765660
7469.826301,0.687531
7470.576335,0.750034
7471.326370,0.750034
7472.107655,0.781286
7472.842064,0.734409
7473.670227,0.828163
7474.435887,0.765660
7475.248424,0.812537
7476.014084,0.765660
7476.795370,0.781286
7477.592281,0.796911
7478.404819,0.812537
7479.123601,0.718783
7479.889261,0.765660
7480.623670,0.734409
7481.358079,0.734409
7482.139364,0.781286
7482.873773,0.734409
7483.639433,0.765660
7484.451970,0.812537
7485.186379,0.734409
7485.967665,0.781286
7486.764576,0.796911
7487.577113,0.812537
7488.327148,0.750034
7489.124059,0.796911
7489.936596,0.812537
7490.702256,0.765660
7491.483542,0.781286
7492.311705,0.828163
7496.030625,0.781286
7496.921291,0.890666
7515.781529,0.796911
7524.844444,0.796911
7525.625730,0.781286
7526.407016,0.781286
7538.485694,0.828163
7539.298231,0.812537
7540.095142,0.796911
7540.923305,0.828163
7541.704591,0.781286
7542.485877,0.781286
7543.251537,0.765660
7544.079700,0.828163
7544.923488,0.843789
7545.767277,0.843789
7546.626691,0.859414
7547.532983,0.906291
7619.411273,0.796911
7620.176933,0.765660
7620.958219,0.781286
7645.099949,0.765660
7645.912486,0.812537
7646.725023,0.812537
7647.584438,0.859414
7656.819235,0.796911
7657.616147,0.796911
7658.413058,0.796911
7659.209970,0.796911
7714.009353,0.750034
7714.790639,0.781286
7715.525048,0.734409
7716.306334,0.781286
7717.103245,0.796911
7717.915782,0.812537
7718.790822,0.875040
7719.634611,0.843789
7720.525277,0.890666
7721.369065,0.843789
7722.165977,0.796911
7722.947263,0.781286
7723.728548,0.781286
7724.509834,0.781286
7725.306746,0.796911
7726.119283,0.812537
7726.963071,0.843789
7727.806860,0.843789
7728.666274,0.859414
7729.760074,1.093800
7743.510704,0.734409
7784.418826,0.796911
7835.874306,0.859414
7836.749346,0.875040
7837.546258,0.796911
7838.358795,0.812537
7839.155707,0.796911
7839.952618,0.796911
7840.733904,0.781286
7887.720430,1.015671
7888.736101,1.015671
7889.689270,0.953169
7890.658064,0.968794
7891.548730,0.890666
7892.423770,0.875040
7893.298810,0.875040
7916.362366,0.703157
7917.159277,0.796911
7917.924937,0.765660
7918.643720,0.718783
7919.565637,0.921917
7920.425052,0.859414
7921.346969,0.921917
7922.206383,0.859414
7932.738115,0.859414
7933.566278,0.828163
7934.410067,0.843789
7935.269481,0.859414
7936.035141,0.765660
7936.847678,0.812537
7937.644590,0.796911
7938.378999,0.734409
7939.191536,0.812537
7939.957196,0.765660
7940.707230,0.750034
7947.379411,0.921917
7948.301328,0.921917
7949.145116,0.843789
7949.988905,0.843789
7950.848319,0.859414
7951.613979,0.765660
7952.426517,0.812537
7953.239054,0.812537
7953.989088,0.750034
7954.754748,0.765660
7955.504782,0.750034
7956.317320,0.812537
7957.098605,0.781286
7978.208947,0.703157
7978.974607,0.765660
7979.771518,0.796911
7980.599681,0.828163
7981.427844,0.828163
7982.287258,0.859414
7983.131047,0.843789
7983.959210,0.828163
7992.522102,0.765660
7993.319013,0.796911
7994.053422,0.734409
7994.834708,0.781286
7995.600368,0.765660
7996.366028,0.765660
7997.116062,0.750034
7997.866096,0.750034
7998.678634,0.812537
7999.444294,0.765660
8000.225580,0.781286
8001.053742,0.828163
8001.850654,0.796911
8002.585063,0.734409
8013.444935,0.796911
8014.194969,0.750034
8014.976255,0.781286
8015.757540,0.781286
8036.117847,0.718783
8036.852256,0.734409
8037.633542,0.781286
8038.430453,0.796911
8039.227365,0.796911
8040.024276,0.796911
8049.446583,0.890666
8050.243494,0.796911
8051.071657,0.828163
8051.931071,0.859414
8052.790486,0.859414
8053.634274,0.843789
8054.415560,0.781286
8055.228097,0.812537
8056.009383,0.781286
8056.821920,0.812537
8084.557565,0.843789
8085.416979,0.859414
8086.213891,0.796911
8087.010802,0.796911
8087.823339,0.812537
8094.354888,0.812537
8107.089846,0.750034
8197.093966,0.812537
8197.937755,0.843789
8198.719040,0.781286
8199.578455,0.859414
8200.484746,0.906291
8201.359786,0.875040
8202.266078,0.906291
8203.156744,0.890666
8204.078661,0.921917
8204.953701,0.875040
8205.844367,0.890666
8206.735032,0.890666
8207.641324,0.906291
8208.500738,0.859414
8209.407030,0.906291
8210.375824,0.968794
8211.297741,0.921917
8212.172781,0.875040
8213.094698,0.921917
8214.079118,0.984420
8215.016661,0.937543
8215.985456,0.968794
8216.954250,0.968794
8217.876167,0.921917
8218.766833,0.890666
8219.673125,0.906291
8220.641919,0.968794
8221.563836,0.921917
8222.517005,0.953169
8223.485799,0.968794
8224.360839,0.875040
8225.220253,0.859414
8226.142171,0.921917
8227.095339,0.953169
8228.032882,0.937543
8228.923548,0.890666
8229.782962,0.859414
8230.673628,0.890666
8231.595545,0.921917
8232.486211,0.890666
8233.408128,0.921917
8234.345671,0.937543
8235.251963,0.906291
8236.127003,0.875040
8237.048920,0.921917
8238.002089,0.953169
8238.892754,0.890666
8239.767794,0.875040
8240.689712,0.921917
8241.642880,0.953169
8242.564797,0.921917
8243.471089,0.906291
8244.424258,0.953169
8245.408678,0.984420
8246.283718,0.875040
8247.080629,0.796911
8247.924418,0.843789
8248.830709,0.906291
8249.721375,0.890666
8250.565164,0.843789
8251.518332,0.953169
8252.549629,1.031297
8253.487172,0.937543
8254.393464,0.906291
8255.315381,0.921917
8256.174795,0.859414
8257.018584,0.843789
8257.877998,0.859414
8258.737413,0.859414
8259.549950,0.812537
8260.362487,0.812537
8261.206276,0.843789
8262.081316,0.875040
8262.940730,0.859414
8263.831396,0.890666
8264.753313,0.921917
8265.659605,0.906291
8266.550270,0.890666
8267.409685,0.859414
8268.315976,0.906291
8269.253519,0.937543
8270.159811,0.906291
8271.034851,0.875040
8271.941142,0.906291
8272.863059,0.921917
8273.784976,0.921917
8274.644391,0.859414
8275.566308,0.921917
8276.503851,0.937543
8277.457020,0.953169
8278.316434,0.859414
8279.222725,0.906291
8280.113391,0.890666
8281.019683,0.906291
8281.910348,0.890666
8282.769763,0.859414
8283.644803,0.875040
8284.504217,0.859414
8285.379257,0.875040
8286.254297,0.875040
8287.207466,0.953169
8288.207512,1.000046
8289.176306,0.968794
8290.176352,1.000046
8291.145146,0.968794
8292.113940,0.968794
8293.004606,0.890666
8293.848395,0.843789
8294.707809,0.859414
8295.614101,0.906291
8296.520392,0.906291
8297.379807,0.859414
8298.286098,0.906291
8299.208015,0.921917
8300.098681,0.890666
8300.926844,0.828163
8301.801884,0.875040
8302.661298,0.859414
8303.505087,0.843789
8304.301998,0.796911
8305.145787,0.843789
8305.989576,0.843789
8306.817739,0.828163
8307.630276,0.812537
8308.489690,0.859414
8309.395982,0.906291
8310.286647,0.890666
8311.114810,0.828163
8311.927347,0.812537
8312.739885,0.812537
8313.599299,0.859414
