1532076227.000000
4.000000
0.000000
0.506034
0.626458
0.629020
0.629020
0.629020
0.631582
0.631582
0.630301
0.631582
0.631582
0.630301
0.629020
0.630301
0.630301
0.630301
0.627739
0.627739
0.625177
0.625177
0.625177
0.627739
0.623896
0.621333
0.622614
0.623896
0.620052
0.620052
0.620052
0.617490
0.617490
0.616209
0.616209
0.617490
0.614928
0.612366
0.614928
0.613647
0.611085
0.611085
0.611085
0.607241
0.607241
0.605960
0.605960
0.605960
0.605960
0.604679
0.604679
0.605960
0.602117
0.603398
0.602117
0.600836
0.600836
0.599555
0.600836
0.599555
0.600836
0.599555
0.596992
0.602117
0.598274
0.600836
0.600836
0.600836
0.599555
0.599555
0.596992
0.599555
0.595711
0.595711
0.595711
0.593149
0.593149
0.593149
0.591868
0.589306
0.590587
0.590587
0.590587
0.590587
0.593149
0.588025
0.588025
0.584181
0.584181
0.584181
0.586744
0.582900
0.582900
0.586744
0.588025
0.589306
0.589306
0.594430
0.588025
0.589306
0.585463
0.586744
0.585463
0.584181
0.586744
0.581619
0.582900
0.580338
0.580338
0.581619
0.579057
0.581619
0.579057
0.579057
0.579057
0.577776
0.575214
0.581619
0.576495
0.573933
0.573933
0.573933
0.571370
0.570089
0.570089
0.568808
0.567527
0.564965
0.570089
0.563684
0.563684
0.563684
0.562403
0.561122
0.558559
0.558559
0.563684
0.561122
0.557278
0.555997
0.557278
0.555997
0.554716
0.554716
0.559841
0.553435
0.553435
0.558559
0.553435
0.549592
0.550873
0.552154
0.548311
0.547030
0.548311
0.552154
0.548311
0.547030
0.545748
0.544467
0.544467
0.541905
0.541905
0.541905
0.545748
0.541905
0.547030
0.539343
0.538062
0.539343
0.538062
0.535500
0.536781
0.536781
0.534219
0.534219
0.534219
0.534219
0.531656
0.532937
0.532937
0.532937
0.532937
0.532937
0.531656
0.529094
0.529094
0.534219
0.527813
0.526532
0.527813
0.525251
0.526532
0.523970
0.523970
0.522689
0.521408
0.521408
0.522689
0.526532
0.520126
0.520126
0.518845
0.522689
0.518845
0.518845
0.517564
0.521408
0.515002
0.513721
0.513721
0.512440
0.512440
0.512440
0.515002
0.513721
0.513721
0.513721
0.513721
0.512440
0.511159
0.512440
0.512440
0.509878
0.511159
0.511159
0.508597
0.508597
0.508597
0.508597
0.508597
0.508597
0.506034
0.506034
0.511159
0.507316
0.507316
0.506034
0.506034
0.504753
0.506034
0.503472
0.503472
0.503472
0.507316
0.502191
0.502191
0.500910
0.498348
0.499629
0.499629
0.497067
0.497067
0.497067
0.495786
0.497067
0.497067
0.497067
0.497067
0.495786
0.494504
0.494504
0.498348
0.495786
0.494504
0.493223
0.493223
0.491942
0.493223
0.498348
0.497067
0.490661
0.491942
0.490661
0.489380
0.488099
0.490661
0.489380
0.489380
0.488099
0.489380
0.486818
0.485537
0.485537
0.486818
0.485537
0.484256
0.484256
0.484256
0.482975
0.484256
0.484256
0.484256
0.482975
0.482975
0.481694
0.482975
0.481694
0.481694
0.481694
0.481694
0.480412
0.481694
0.481694
0.479131
0.479131
0.484256
0.477850
0.476569
0.475288
0.476569
0.476569
0.476569
0.475288
0.474007
0.474007
0.474007
0.480412
0.474007
0.472726
0.474007
0.472726
0.472726
0.472726
0.480412
0.474007
0.474007
0.472726
0.471445
0.471445
0.472726
0.471445
0.471445
0.472726
0.470164
0.471445
0.472726
0.471445
0.471445
0.468883
0.468883
0.472726
0.468883
0.467601
0.466320
0.470164
0.474007
0.467601
0.467601
0.466320
0.472726
0.466320
0.466320
0.466320
0.465039
0.465039
0.466320
0.465039
0.463758
0.462477
0.463758
0.462477
0.463758
0.463758
0.463758
0.463758
0.465039
0.462477
0.470164
0.462477
0.463758
0.462477
0.450947
0.438136
0.434293
0.430450
0.427887
0.424044
0.421482
0.421482
0.420201
0.417639
0.417639
0.417639
0.417639
0.416357
0.417639
0.417639
0.418920
0.422763
0.425325
0.425325
0.426606
0.426606
0.426606
0.431731
0.426606
0.425325
0.425325
0.425325
0.430450
0.431731
0.424044
0.444542
0.435574
0.427887
0.427887
0.427887
0.430450
0.431731
0.439417
0.441979
0.438136
0.439417
0.440698
0.447104
0.448385
0.452228
0.450947
0.447104
0.463758
0.453509
0.468883
0.465039
0.454790
0.453509
0.456071
0.453509
0.454790
0.454790
0.454790
0.461196
0.457353
0.457353
0.457353
0.456071
0.456071
0.456071
0.456071
0.454790
0.453509
0.454790
0.462477
0.461196
0.462477
0.462477
0.462477
0.459915
0.462477
0.461196
0.461196
0.459915
0.462477
0.462477
0.462477
0.461196
0.468883
0.462477
0.465039
0.466320
0.463758
0.463758
0.463758
0.462477
0.462477
0.462477
0.462477
0.462477
0.462477
0.459915
0.461196
0.461196
0.465039
0.461196
0.459915
0.458634
0.463758
0.459915
0.459915
0.459915
0.461196
0.461196
0.466320
0.458634
0.465039
0.459915
0.461196
0.462477
0.461196
0.459915
0.459915
0.467601
0.531656
0.548311
0.540624
0.534219
0.545748
0.540624
0.538062
0.544467
0.490661
0.468883
0.466320
0.465039
0.529094
0.550873
0.541905
0.517564
0.484256
0.481694
0.465039
0.470164
0.470164
0.468883
0.470164
0.467601
0.482975
0.521408
0.523970
0.526532
0.532937
0.525251
0.525251
0.523970
0.523970
0.523970
0.527813
0.523970
0.522689
0.521408
0.520126
0.516283
0.515002
0.515002
0.518845
0.525251
0.520126
0.518845
0.517564
0.516283
0.518845
0.516283
0.517564
0.516283
0.516283
0.516283
0.515002
0.513721
0.518845
0.513721
0.513721
0.511159
0.512440
0.509878
0.509878
0.516283
0.509878
0.509878
0.502191
0.506034
0.506034
0.500910
0.498348
0.495786
0.502191
0.494504
0.497067
0.498348
0.495786
0.499629
0.502191
0.499629
0.500910
0.500910
0.503472
0.511159
0.515002
0.516283
0.509878
0.508597
0.509878
0.507316
0.506034
0.506034
0.506034
0.506034
0.504753
0.503472
0.511159
0.502191
0.502191
0.504753
0.502191
0.500910
0.498348
0.499629
0.499629
0.499629
0.498348
0.499629
0.499629
0.499629
0.497067
0.497067
0.497067
0.498348
0.497067
0.495786
0.497067
0.495786
0.497067
0.495786
0.494504
0.495786
0.495786
0.493223
0.497067
0.494504
0.494504
0.495786
0.495786
0.495786
0.495786
0.494504
0.493223
0.493223
0.493223
0.495786
0.494504
0.491942
0.494504
0.493223
0.494504
0.493223
0.494504
0.491942
0.493223
0.490661
0.494504
0.498348
0.491942
0.493223
0.493223
0.494504
0.498348
0.490661
0.493223
0.490661
0.491942
0.491942
0.491942
0.490661
0.491942
0.491942
0.491942
0.490661
0.490661
0.490661
0.490661
0.489380
0.490661
0.489380
0.490661
0.489380
0.489380
0.490661
0.490661
0.486818
0.489380
0.488099
0.493223
0.488099
0.488099
0.485537
0.486818
0.485537
0.488099
0.486818
0.490661
0.488099
0.486818
0.485537
0.486818
0.485537
0.485537
0.484256
0.484256
0.485537
0.485537
0.485537
0.484256
0.484256
0.484256
0.482975
0.484256
0.481694
0.482975
0.482975
0.484256
0.481694
0.481694
0.481694
0.481694
0.481694
0.481694
0.480412
0.480412
0.480412
0.480412
0.482975
0.480412
0.479131
0.477850
0.477850
0.476569
0.476569
0.477850
0.477850
0.476569
0.475288
0.476569
0.475288
0.474007
0.476569
0.480412
0.474007
0.475288
0.472726
0.474007
0.472726
0.472726
0.475288
0.472726
0.472726
0.472726
0.471445
0.472726
0.470164
0.470164
0.468883
0.470164
0.470164
0.471445
0.468883
0.468883
0.468883
0.470164
0.468883
0.470164
0.470164
0.471445
0.476569
0.470164
0.472726
0.470164
0.470164
0.471445
0.470164
0.468883
0.468883
0.470164
0.468883
0.468883
0.467601
0.468883
0.468883
0.466320
0.467601
0.472726
0.466320
0.467601
0.465039
0.465039
0.470164
0.465039
0.466320
0.466320
0.465039
0.466320
0.471445
0.467601
0.470164
0.463758
0.463758
0.465039
0.466320
0.466320
0.463758
0.463758
0.462477
0.463758
0.463758
0.461196
0.462477
0.462477
0.461196
0.466320
0.462477
0.461196
0.458634
0.461196
0.459915
0.457353
0.463758
0.465039
0.458634
0.459915
0.461196
0.461196
0.459915
0.458634
0.458634
0.457353
0.457353
0.458634
0.457353
0.457353
0.458634
0.461196
0.457353
0.457353
0.457353
0.454790
0.453509
0.457353
0.457353
0.454790
0.461196
0.456071
0.456071
0.456071
0.454790
0.453509
0.454790
0.458634
0.454790
0.454790
0.454790
0.453509
0.453509
0.453509
0.454790
0.452228
0.454790
0.453509
0.453509
0.452228
0.456071
0.450947
0.450947
0.452228
0.450947
0.453509
0.452228
0.452228
0.450947
0.452228
0.450947
0.449666
0.450947
0.450947
0.450947
0.449666
0.450947
0.449666
0.449666
0.450947
0.448385
0.448385
0.449666
0.448385
0.448385
0.453509
0.449666
0.449666
0.447104
0.448385
0.447104
0.453509
0.447104
0.447104
0.447104
0.448385
0.448385
0.453509
0.448385
0.447104
0.447104
0.448385
0.448385
0.447104
0.447104
0.448385
0.447104
0.452228
0.447104
0.447104
0.445823
0.447104
0.445823
0.445823
0.445823
0.445823
0.445823
0.445823
0.444542
0.444542
0.445823
0.445823
0.445823
0.444542
0.444542
0.449666
0.444542
0.445823
0.444542
0.445823
0.445823
0.445823
0.444542
0.443261
0.443261
0.444542
0.444542
0.449666
0.443261
0.443261
0.443261
0.443261
0.445823
0.444542
0.443261
0.443261
0.450947
0.443261
0.443261
0.443261
0.444542
0.444542
0.443261
0.443261
0.441979
0.441979
0.443261
0.443261
0.441979
0.443261
0.440698
0.443261
0.440698
0.440698
0.443261
0.440698
0.441979
0.440698
0.440698
0.445823
0.440698
0.440698
0.440698
0.441979
0.441979
0.441979
0.439417
0.445823
0.440698
0.444542
0.440698
0.440698
0.440698
0.440698
0.439417
0.440698
0.440698
0.438136
0.438136
0.439417
0.439417
0.438136
0.438136
0.444542
0.439417
0.438136
0.438136
0.439417
0.438136
0.435574
0.435574
0.433012
0.435574
0.435574
0.434293
0.434293
0.434293
0.434293
0.435574
0.435574
0.435574
0.434293
0.434293
0.433012
0.435574
0.435574
0.433012
0.434293
0.434293
0.435574
0.433012
0.433012
0.434293
0.433012
0.433012
0.433012
0.433012
0.430450
0.431731
0.431731
0.433012
0.430450
0.431731
0.431731
0.430450
0.431731
0.431731
0.431731
0.435574
0.430450
0.431731
0.430450
0.431731
0.430450
0.429168
0.430450
0.431731
0.429168
0.429168
0.429168
0.429168
0.430450
0.430450
0.430450
0.429168
0.429168
0.429168
0.434293
0.429168
0.429168
0.429168
0.427887
0.434293
0.429168
0.427887
0.427887
0.429168
0.429168
0.427887
0.433012
0.426606
0.426606
0.426606
0.426606
0.435574
0.427887
0.426606
0.427887
0.427887
0.426606
0.426606
0.426606
0.431731
0.426606
0.425325
0.427887
0.424044
0.425325
0.425325
0.426606
0.425325
0.427887
0.424044
0.426606
0.426606
0.425325
0.433012
0.424044
0.424044
0.424044
0.427887
0.425325
0.426606
0.425325
0.425325
0.425325
0.430450
0.427887
0.425325
0.426606
0.426606
0.426606
0.422763
0.424044
0.424044
0.424044
0.424044
0.424044
0.425325
0.425325
0.422763
0.424044
0.422763
0.422763
0.422763
0.424044
0.424044
0.424044
0.424044
0.424044
0.422763
0.422763
0.422763
0.429168
0.422763
0.424044
0.421482
0.426606
0.427887
0.422763
0.429168
0.427887
0.422763
0.424044
0.426606
0.420201
0.421482
0.421482
0.421482
0.421482
0.422763
0.422763
0.420201
0.421482
0.420201
0.421482
0.420201
0.427887
0.420201
0.421482
0.420201
0.426606
0.422763
0.420201
0.418920
0.420201
0.418920
0.418920
0.417639
0.418920
0.425325
0.417639
0.417639
0.424044
0.421482
0.417639
0.416357
0.417639
0.416357
0.417639
0.416357
0.415076
0.420201
0.415076
0.416357
0.416357
0.416357
0.417639
0.416357
0.417639
0.415076
0.415076
0.418920
0.417639
0.417639
0.417639
0.415076
0.415076
0.415076
0.420201
0.417639
0.416357
0.416357
0.413795
0.415076
0.413795
0.415076
0.413795
0.413795
0.416357
0.412514
0.413795
0.413795
0.420201
0.415076
0.413795
0.418920
0.420201
0.415076
0.415076
0.413795
0.413795
0.413795
0.413795
0.413795
0.413795
0.415076
0.413795
0.413795
0.413795
0.413795
0.415076
0.412514
0.412514
0.412514
0.417639
0.413795
0.413795
0.413795
0.415076
0.416357
0.412514
0.412514
0.413795
0.413795
0.413795
0.413795
0.412514
0.412514
0.411233
0.413795
0.416357
0.413795
0.412514
0.411233
0.411233
0.411233
0.411233
0.411233
0.411233
0.412514
0.413795
0.412514
0.411233
0.412514
0.412514
0.412514
0.409952
0.409952
0.412514
0.411233
0.411233
0.411233
0.411233
0.409952
0.409952
0.409952
0.409952
0.411233
0.409952
0.411233
0.409952
0.409952
0.411233
0.408671
0.407390
0.409952
0.412514
0.408671
0.409952
0.407390
0.408671
0.407390
0.407390
0.413795
0.415076
0.407390
0.415076
0.408671
0.407390
0.406109
0.407390
0.408671
0.407390
0.412514
0.408671
0.407390
0.408671
0.406109
0.408671
0.407390
0.408671
0.407390
0.415076
0.407390
0.408671
0.408671
0.407390
0.412514
0.407390
0.406109
0.407390
0.406109
0.407390
0.406109
0.408671
0.407390
0.408671
0.406109
0.406109
0.409952
0.407390
0.404828
0.407390
0.407390
0.407390
0.406109
0.404828
0.407390
0.411233
0.404828
0.406109
0.411233
0.403546
0.404828
0.404828
0.404828
0.407390
0.406109
0.404828
0.406109
0.403546
0.407390
0.403546
0.403546
0.408671
0.404828
0.404828
0.404828
0.402265
0.409952
0.404828
0.402265
0.403546
0.403546
0.402265
0.402265
0.402265
0.402265
0.402265
0.402265
0.403546
0.402265
0.402265
0.406109
0.403546
0.403546
0.408671
0.402265
0.402265
0.402265
0.402265
0.403546
0.402265
0.402265
0.403546
0.403546
0.402265
0.400984
0.400984
0.402265
0.402265
0.402265
0.403546
0.402265
0.402265
0.403546
0.408671
0.403546
0.403546
0.402265
0.402265
0.403546
0.402265
0.403546
0.400984
0.407390
0.403546
0.400984
0.406109
0.402265
0.402265
0.400984
0.402265
0.400984
0.408671
0.403546
0.400984
0.400984
0.400984
0.406109
0.402265
0.402265
0.402265
0.400984
0.399703
0.402265
0.399703
0.400984
0.399703
0.400984
0.400984
0.399703
0.400984
0.399703
0.404828
0.399703
0.402265
0.400984
0.400984
0.399703
0.400984
0.399703
0.400984
0.399703
0.399703
0.399703
0.400984
0.400984
0.400984
0.400984
0.400984
0.408671
0.399703
0.399703
0.399703
0.399703
0.406109
0.400984
0.402265
0.400984
0.399703
0.399703
0.404828
0.399703
0.400984
0.398422
0.400984
0.399703
0.400984
0.406109
0.400984
0.399703
0.399703
0.404828
0.398422
0.398422
0.400984
0.399703
0.398422
0.398422
0.399703
0.403546
0.398422
0.399703
0.398422
0.398422
0.398422
0.395860
0.399703
0.404828
0.399703
0.399703
0.397141
0.399703
0.399703
0.399703
0.398422
0.399703
0.397141
0.397141
0.397141
0.397141
0.399703
0.399703
0.398422
0.398422
0.398422
0.400984
0.397141
0.398422
0.397141
0.397141
0.402265
0.398422
0.398422
0.397141
0.398422
0.398422
0.397141
0.397141
0.397141
0.402265
0.398422
0.399703
0.399703
0.398422
0.397141
0.397141
0.397141
0.397141
0.397141
0.397141
0.398422
0.397141
0.398422
0.398422
0.403546
0.397141
0.397141
0.397141
0.398422
0.398422
0.397141
0.397141
0.403546
0.397141
0.398422
0.397141
0.398422
0.398422
0.398422
0.395860
0.395860
0.395860
0.395860
0.397141
0.395860
0.399703
0.397141
0.397141
0.395860
0.397141
0.394579
0.395860
0.400984
0.402265
0.395860
0.397141
0.398422
0.398422
0.398422
0.397141
0.399703
0.398422
0.397141
0.403546
0.397141
0.397141
0.399703
0.399703
0.399703
0.399703
0.399703
0.399703
0.399703
0.402265
0.399703
0.399703
0.400984
0.399703
0.399703
0.399703
0.399703
0.400984
0.398422
0.400984
0.400984
0.400984
0.400984
0.399703
0.406109
0.400984
0.398422
0.398422
0.399703
0.399703
0.398422
0.398422
0.399703
0.399703
0.398422
0.398422
0.400984
0.400984
0.399703
0.399703
0.403546
0.398422
0.399703
0.399703
0.404828
0.399703
0.398422
0.402265
0.399703
0.399703
0.400984
0.400984
0.400984
0.404828
0.399703
0.399703
0.399703
0.399703
0.400984
0.399703
0.398422
0.399703
0.399703
0.399703
0.398422
0.400984
0.400984
0.398422
0.400984
0.400984
0.399703
0.407390
0.399703
0.398422
0.404828
0.400984
0.399703
0.400984
0.400984
0.400984
0.402265
0.399703
0.399703
0.398422
0.403546
0.398422
0.399703
0.398422
0.399703
0.399703
0.398422
0.399703
0.398422
0.397141
0.399703
0.395860
0.397141
0.398422
0.398422
0.398422
0.397141
0.398422
0.404828
0.398422
0.399703
0.399703
0.398422
0.397141
0.399703
0.398422
0.399703
0.398422
0.397141
0.402265
0.398422
0.398422
0.398422
0.398422
0.402265
0.406109
0.402265
0.402265
0.398422
0.398422
0.400984
0.398422
0.398422
0.398422
0.398422
0.395860
0.398422
0.397141
0.397141
0.402265
0.397141
0.397141
0.398422
0.398422
0.398422
0.406109
0.398422
0.397141
0.402265
0.398422
0.397141
0.399703
0.399703
0.398422
0.399703
0.399703
0.398422
0.398422
0.400984
0.399703
0.397141
0.398422
0.399703
0.399703
0.398422
0.403546
0.398422
0.399703
0.398422
0.397141
0.399703
0.398422
0.398422
0.398422
0.399703
0.399703
0.398422
0.400984
0.398422
0.397141
0.398422
0.402265
0.397141
0.397141
0.397141
0.403546
0.397141
0.397141
0.395860
0.395860
0.395860
0.397141
0.397141
0.397141
0.397141
0.395860
0.399703
0.397141
0.397141
0.398422
0.397141
0.404828
0.398422
0.398422
0.397141
0.398422
0.400984
0.398422
0.398422
0.397141
0.398422
0.397141
0.398422
0.397141
0.397141
0.397141
0.404828
0.398422
0.399703
0.398422
0.395860
0.397141
0.397141
0.397141
0.397141
0.397141
0.399703
0.398422
0.397141
0.395860
0.397141
0.397141
0.397141
0.395860
0.395860
0.395860
0.397141
0.398422
0.397141
0.397141
0.397141
0.395860
0.395860
0.395860
0.397141
0.395860
0.395860
0.397141
0.395860
0.394579
0.397141
0.398422
0.397141
0.395860
0.395860
0.395860
0.397141
0.398422
0.398422
0.398422
0.398422
0.398422
0.398422
0.398422
0.397141
0.395860
0.397141
0.397141
0.397141
0.395860
0.397141
0.397141
0.397141
0.397141
0.394579
0.394579
0.394579
0.395860
0.395860
0.397141
0.397141
0.397141
0.397141
0.397141
0.398422
0.395860
0.404828
0.397141
0.400984
0.395860
0.395860
0.395860
0.398422
0.397141
0.397141
0.398422
0.398422
0.397141
0.397141
0.400984
0.397141
0.398422
0.398422
0.397141
0.395860
0.395860
0.397141
0.394579
0.394579
0.394579
0.394579
0.394579
0.393298
0.393298
0.394579
0.394579
0.393298
0.395860
0.394579
0.393298
0.394579
0.393298
0.394579
0.394579
0.394579
0.394579
0.395860
0.395860
0.395860
0.394579
0.394579
0.394579
0.395860
0.393298
0.395860
0.395860
0.395860
0.397141
0.394579
0.395860
0.395860
0.395860
0.395860
0.395860
0.394579
0.394579
0.394579
0.395860
0.394579
0.394579
0.400984
0.395860
0.394579
0.395860
0.395860
0.394579
0.394579
0.394579
0.395860
0.394579
0.399703
0.400984
0.394579
0.394579
0.395860
0.394579
0.398422
0.395860
0.395860
0.394579
0.395860
0.394579
0.395860
0.395860
0.395860
0.395860
0.395860
0.393298
0.395860
0.394579
0.395860
0.394579
0.394579
0.398422
0.395860
0.395860
0.395860
0.395860
0.399703
0.397141
0.394579
0.400984
0.399703
0.394579
0.395860
0.395860
0.395860
0.397141
0.397141
0.400984
0.395860
0.400984
0.395860
0.395860
0.395860
0.397141
0.394579
0.395860
0.397141
0.395860
0.395860
0.402265
0.394579
0.395860
0.397141
0.395860
0.397141
0.395860
0.397141
0.395860
0.395860
0.395860
0.402265
0.395860
0.395860
0.395860
0.395860
0.397141
0.395860
0.397141
0.395860
0.397141
0.395860
0.400984
0.397141
0.397141
0.395860
0.395860
0.397141
0.395860
0.395860
0.395860
0.394579
0.395860
0.394579
0.400984
0.400984
0.395860
0.395860
0.397141
0.394579
0.397141
0.397141
0.395860
0.395860
0.397141
0.395860
0.395860
0.395860
0.394579
0.397141
0.395860
0.397141
0.397141
0.397141
0.395860
0.397141
0.395860
0.394579
0.400984
0.400984
0.397141
0.395860
0.394579
0.397141
0.397141
0.397141
0.395860
0.397141
0.395860
0.400984
0.395860
0.398422
0.397141
0.397141
0.395860
0.395860
0.395860
0.395860
0.395860
0.395860
0.395860
0.403546
0.399703
0.397141
0.398422
0.397141
0.395860
0.397141
0.397141
0.395860
0.395860
0.403546
0.398422
0.398422
0.398422
0.397141
0.398422
0.398422
0.397141
0.402265
0.397141
0.397141
0.398422
0.398422
0.398422
0.398422
0.397141
0.397141
0.397141
0.397141
0.402265
0.398422
0.397141
0.398422
0.398422
0.403546
0.398422
0.398422
0.399703
0.402265
0.397141
0.398422
0.402265
0.398422
0.398422
0.398422
0.398422
0.398422
0.398422
0.397141
0.397141
0.399703
0.397141
0.397141
0.398422
0.397141
0.398422
0.398422
0.395860
0.398422
0.398422
0.398422
0.398422
0.397141
0.397141
0.398422
0.399703
0.399703
0.399703
0.399703
0.398422
0.399703
0.399703
0.399703
0.398422
0.398422
0.403546
0.397141
0.399703
0.398422
0.398422
0.398422
0.398422
0.398422
0.398422
0.399703
0.398422
0.398422
0.398422
0.398422
0.400984
0.406109
0.400984
0.399703
0.398422
0.398422
0.404828
0.404828
0.398422
0.399703
0.398422
0.400984
0.399703
0.400984
0.398422
0.399703
0.403546
0.398422
0.398422
0.398422
0.398422
0.399703
0.400984
0.398422
0.398422
0.404828
0.399703
0.399703
0.399703
0.398422
0.398422
0.398422
0.399703
0.400984
0.399703
0.399703
0.400984
0.398422
0.399703
0.403546
0.404828
0.404828
0.399703
0.399703
0.399703
0.400984
0.400984
0.399703
0.399703
0.400984
0.404828
0.399703
0.404828
0.403546
0.399703
0.400984
0.399703
0.399703
0.400984
0.398422
0.398422
0.398422
0.399703
0.400984
0.399703
0.398422
0.400984
0.400984
0.398422
0.400984
0.400984
0.398422
0.399703
0.399703
0.399703
0.399703
0.399703
0.400984
0.406109
0.398422
0.399703
0.399703
0.404828
0.399703
0.399703
0.398422
0.399703
0.399703
0.402265
0.400984
0.400984
0.400984
0.399703
0.400984
0.399703
0.399703
0.404828
0.404828
0.399703
0.400984
0.400984
0.400984
0.399703
0.398422
0.398422
0.404828
0.400984
0.400984
0.399703
0.406109
0.406109
0.399703
0.400984
0.400984
0.400984
0.400984
0.400984
0.402265
0.399703
0.402265
0.400984
0.402265
0.400984
0.400984
0.403546
0.399703
0.400984
0.402265
0.400984
0.402265
0.400984
0.400984
0.403546
0.400984
0.400984
0.403546
0.408671
0.402265
0.402265
0.402265
0.400984
0.403546
0.402265
0.407390
0.400984
0.400984
0.400984
0.400984
0.402265
0.400984
0.402265
0.402265
0.400984
0.402265
0.402265
0.398422
0.408671
0.400984
0.400984
0.402265
0.406109
0.400984
0.402265
0.400984
0.400984
0.403546
0.402265
0.402265
0.399703
0.407390
0.407390
0.400984
0.402265
0.407390
0.407390
0.402265
0.403546
0.403546
0.403546
0.403546
0.402265
0.400984
0.402265
0.402265
0.402265
0.406109
0.402265
0.406109
0.402265
0.402265
0.403546
0.408671
0.400984
0.402265
0.402265
0.402265
0.402265
0.402265
0.404828
0.403546
0.399703
0.403546
0.403546
0.402265
0.402265
0.402265
0.402265
0.402265
0.402265
0.406109
0.403546
0.403546
0.404828
0.402265
0.403546
0.403546
0.407390
0.403546
0.402265
0.402265
0.404828
0.403546
0.403546
0.403546
0.400984
0.402265
0.402265
0.402265
0.403546
0.403546
0.403546
0.404828
0.404828
0.404828
0.404828
0.404828
0.402265
0.404828
0.403546
0.403546
0.403546
0.409952
0.404828
0.403546
0.404828
0.404828
0.404828
0.403546
0.403546
0.409952
0.404828
0.403546
0.404828
0.411233
0.404828
0.409952
0.406109
0.404828
0.404828
0.406109
0.403546
0.406109
0.409952
0.404828
0.406109
0.408671
0.404828
0.406109
0.404828
0.406109
0.406109
0.407390
0.403546
0.404828
0.404828
0.406109
0.406109
0.404828
0.404828
0.406109
0.406109
0.404828
0.406109
0.407390
0.406109
0.407390
0.407390
0.406109
0.406109
0.406109
0.406109
0.406109
0.406109
0.406109
0.406109
0.407390
0.407390
0.407390
0.407390
0.412514
0.407390
0.412514
0.407390
0.406109
0.406109
0.406109
0.408671
0.407390
0.408671
0.407390
0.407390
0.408671
0.407390
0.406109
0.408671
0.412514
0.407390
0.407390
0.407390
0.408671
0.415076
0.407390
0.408671
0.408671
0.406109
0.408671
0.413795
0.407390
0.412514
0.413795
0.408671
0.407390
0.408671
0.409952
0.408671
0.407390
0.407390
0.407390
0.407390
0.407390
0.406109
0.407390
0.412514
0.406109
0.407390
0.411233
0.406109
0.407390
0.406109
0.406109
0.406109
0.407390
0.408671
0.407390
0.407390
0.408671
0.404828
0.407390
0.408671
0.408671
0.407390
0.407390
0.407390
0.408671
0.407390
0.407390
0.408671
0.412514
0.407390
0.408671
0.408671
0.408671
0.407390
0.408671
0.408671
0.407390
0.407390
0.407390
0.408671
0.408671
0.408671
0.409952
0.409952
0.415076
0.408671
0.409952
0.408671
0.408671
0.408671
0.408671
0.408671
0.409952
0.406109
0.409952
0.409952
0.409952
0.409952
0.408671
0.408671
0.411233
0.409952
0.416357
0.413795
0.412514
0.412514
0.411233
0.409952
0.411233
0.411233
0.409952
0.409952
0.411233
0.409952
0.409952
0.409952
0.409952
0.409952
0.409952
0.411233
0.409952
0.409952
0.411233
0.411233
0.409952
0.409952
0.413795
0.411233
0.415076
0.409952
0.412514
0.409952
0.411233
0.412514
0.411233
0.411233
0.411233
0.409952
0.409952
0.411233
0.411233
0.412514
0.411233
0.411233
0.411233
0.411233
0.411233
0.412514
0.412514
0.412514
0.412514
0.412514
0.411233
0.411233
0.411233
0.411233
0.411233
0.416357
0.412514
0.416357
0.413795
0.412514
0.412514
0.411233
0.412514
0.412514
0.411233
0.411233
0.411233
0.411233
0.417639
0.411233
0.411233
0.411233
0.413795
0.412514
0.412514
0.412514
0.412514
0.409952
0.411233
0.412514
0.412514
0.411233
0.416357
0.413795
0.415076
0.413795
0.413795
0.412514
0.412514
0.413795
0.412514
0.412514
0.417639
0.418920
0.413795
0.412514
0.412514
0.412514
0.413795
0.412514
0.413795
0.413795
0.413795
0.412514
0.418920
0.415076
0.416357
0.415076
0.416357
0.415076
0.420201
0.416357
0.416357
0.415076
0.416357
0.415076
0.417639
0.416357
0.416357
0.416357
0.416357
0.416357
0.416357
0.416357
0.416357
0.417639
0.415076
0.416357
0.417639
0.417639
0.417639
0.417639
0.417639
0.417639
0.416357
0.418920
0.418920
0.418920
0.418920
0.417639
0.418920
0.417639
0.422763
0.418920
0.418920
0.417639
0.422763
0.422763
0.418920
0.418920
0.418920
0.417639
0.418920
0.418920
0.424044
0.422763
0.417639
0.417639
0.417639
0.418920
0.421482
0.418920
0.418920
0.418920
0.422763
0.424044
0.420201
0.418920
0.418920
0.418920
0.418920
0.421482
0.418920
0.420201
0.420201
0.420201
0.420201
0.420201
0.420201
0.420201
0.420201
0.420201
0.421482
0.426606
0.422763
0.421482
0.421482
0.421482
0.421482
0.418920
0.418920
0.420201
0.420201
0.421482
0.420201
0.420201
0.421482
0.421482
0.420201
0.421482
0.421482
0.421482
0.421482
0.421482
0.422763
0.421482
0.421482
0.421482
0.425325
0.421482
0.422763
0.421482
0.421482
0.426606
0.422763
0.425325
0.421482
0.421482
0.421482
0.421482
0.421482
0.421482
0.421482
0.420201
0.421482
0.421482
0.421482
0.422763
0.420201
0.420201
0.420201
0.420201
0.421482
0.425325
0.421482
0.420201
0.421482
0.421482
0.421482
0.420201
0.421482
0.425325
0.425325
0.420201
0.425325
0.427887
0.421482
0.421482
0.422763
0.421482
0.421482
0.421482
0.426606
0.421482
0.421482
0.425325
0.420201
0.426606
0.421482
0.421482
0.420201
0.421482
0.418920
0.420201
0.425325
0.420201
0.420201
0.420201
0.421482
0.420201
0.424044
0.421482
0.422763
0.422763
0.422763
0.420201
0.421482
0.421482
0.420201
0.421482
0.421482
0.422763
0.422763
0.421482
0.422763
0.422763
0.421482
0.427887
0.427887
0.421482
0.426606
0.421482
0.425325
0.422763
0.422763
0.422763
0.422763
0.421482
0.422763
0.421482
0.422763
0.422763
0.426606
0.424044
0.424044
0.422763
0.424044
0.422763
0.422763
0.422763
0.422763
0.422763
0.424044
0.422763
0.429168
0.424044
0.424044
0.424044
0.424044
0.424044
0.422763
0.422763
0.422763
0.422763
0.422763
0.425325
0.424044
0.425325
0.424044
0.425325
0.424044
0.425325
0.425325
0.424044
0.429168
0.429168
0.425325
0.424044
0.424044
0.424044
0.426606
0.424044
0.425325
0.425325
0.427887
0.424044
0.426606
0.426606
0.425325
0.426606
0.425325
0.425325
0.425325
0.425325
0.425325
0.426606
0.431731
0.426606
0.427887
0.425325
0.427887
0.427887
0.427887
0.429168
0.426606
0.425325
0.425325
0.425325
0.425325
0.431731
0.427887
0.427887
0.427887
0.425325
0.425325
0.426606
0.425325
0.425325
0.425325
0.425325
0.426606
0.426606
0.426606
0.426606
0.426606
0.426606
0.426606
0.425325
0.426606
0.425325
0.426606
0.427887
0.426606
0.425325
0.427887
0.426606
0.426606
0.425325
0.427887
0.427887
0.427887
0.427887
0.427887
0.426606
0.426606
0.427887
0.427887
0.431731
0.426606
0.426606
0.426606
0.427887
0.427887
0.429168
0.427887
0.427887
0.427887
0.426606
0.433012
0.427887
0.426606
0.426606
0.427887
0.427887
0.433012
0.426606
0.429168
0.426606
0.430450
0.430450
0.430450
0.429168
0.427887
0.429168
0.429168
0.430450
0.430450
0.429168
0.430450
0.430450
0.430450
0.431731
0.431731
0.429168
0.431731
0.431731
0.438136
0.431731
0.431731
0.431731
0.430450
0.431731
0.436855
0.430450
0.433012
0.433012
0.431731
0.433012
0.431731
0.431731
0.431731
0.438136
0.433012
0.431731
0.431731
0.431731
0.431731
0.431731
0.440698
0.439417
0.433012
0.433012
0.431731
0.431731
0.433012
0.431731
0.431731
0.429168
0.430450
0.431731
0.429168
0.430450
0.431731
0.430450
0.429168
0.429168
0.429168
0.430450
0.430450
0.436855
0.431731
0.430450
0.433012
0.430450
0.431731
0.430450
0.431731
0.431731
0.430450
0.430450
0.436855
0.431731
0.430450
0.431731
0.435574
0.431731
0.431731
0.434293
0.430450
0.433012
0.433012
0.431731
0.431731
0.433012
0.433012
0.431731
0.430450
0.431731
0.431731
0.433012
0.438136
0.433012
0.433012
0.433012
0.433012
0.434293
0.429168
0.436855
0.433012
0.431731
0.431731
0.431731
0.431731
0.438136
0.439417
0.434293
0.430450
0.433012
0.431731
0.431731
0.431731
0.433012
0.436855
0.430450
0.431731
0.433012
0.430450
0.431731
0.433012
0.431731
0.431731
0.431731
0.431731
0.433012
0.438136
0.434293
0.433012
0.431731
0.436855
0.431731
0.435574
0.431731
0.433012
0.433012
0.433012
0.431731
0.431731
0.434293
0.433012
0.431731
0.433012
0.433012
0.433012
0.434293
0.433012
0.433012
0.433012
0.434293
0.434293
0.435574
0.433012
0.431731
0.431731
0.433012
0.434293
0.433012
0.434293
0.433012
0.431731
0.433012
0.433012
0.431731
0.433012
0.433012
0.433012
0.431731
0.431731
0.431731
0.433012
0.433012
0.434293
0.434293
0.433012
0.433012
0.433012
0.434293
0.433012
0.433012
0.433012
0.435574
0.435574
0.434293
0.435574
0.435574
0.435574
0.434293
0.433012
0.434293
0.434293
0.439417
0.434293
0.433012
0.435574
0.434293
0.434293
0.435574
0.434293
0.431731
0.434293
0.434293
0.434293
0.433012
0.433012
0.434293
0.434293
0.434293
0.434293
0.433012
0.434293
0.444542
0.448385
0.443261
0.436855
0.434293
0.434293
0.431731
0.433012
0.433012
0.433012
0.439417
0.440698
0.435574
0.435574
0.433012
0.434293
0.434293
0.434293
0.431731
0.433012
0.434293
0.439417
0.431731
0.433012
0.434293
0.435574
0.434293
0.434293
0.434293
0.434293
0.434293
0.434293
0.435574
0.434293
0.433012
0.433012
0.433012
0.434293
0.434293
0.434293
0.434293
0.434293
0.434293
0.434293
0.433012
0.433012
0.435574
0.434293
0.433012
0.435574
0.434293
0.433012
0.436855
0.434293
0.433012
0.434293
0.433012
0.434293
0.439417
0.439417
0.436855
0.433012
0.433012
0.433012
0.433012
0.434293
0.434293
0.439417
0.434293
0.435574
0.435574
0.435574
0.433012
0.435574
0.436855
0.439417
0.434293
0.434293
0.434293
0.434293
0.436855
0.435574
0.436855
0.435574
0.434293
0.435574
0.435574
0.434293
0.436855
0.434293
0.435574
0.435574
0.434293
0.441979
0.438136
0.435574
0.435574
0.434293
0.435574
0.436855
0.436855
0.435574
0.440698
0.435574
0.436855
0.440698
0.435574
0.435574
0.439417
0.436855
0.436855
0.436855
0.438136
0.436855
0.435574
0.436855
0.435574
0.434293
0.435574
0.435574
0.436855
0.436855
0.436855
0.436855
0.435574
0.436855
0.441979
0.435574
0.436855
0.435574
0.434293
0.439417
0.439417
0.439417
0.435574
0.435574
0.435574
0.438136
0.440698
0.435574
0.435574
0.435574
0.434293
0.434293
0.435574
0.434293
0.435574
0.435574
0.436855
0.435574
0.440698
0.436855
0.436855
0.435574
0.436855
0.435574
0.435574
0.439417
0.436855
0.438136
0.436855
0.436855
0.438136
0.441979
0.436855
0.443261
0.436855
0.441979
0.441979
0.439417
0.439417
0.438136
0.436855
0.438136
0.435574
0.436855
0.436855
0.436855
0.436855
0.438136
0.436855
0.441979
0.436855
0.436855
0.439417
0.441979
0.436855
0.438136
0.443261
0.438136
0.435574
0.436855
0.438136
0.436855
0.435574
0.436855
0.436855
0.436855
0.438136
0.436855
0.436855
0.436855
0.436855
0.438136
0.436855
0.436855
0.436855
0.436855
0.436855
0.439417
0.438136
0.438136
0.438136
0.438136
0.444542
0.435574
0.440698
0.436855
0.435574
0.436855
0.436855
0.435574
0.439417
0.439417
0.436855
0.438136
0.438136
0.439417
0.439417
0.438136
0.441979
0.438136
0.438136
0.438136
0.438136
0.436855
0.439417
0.439417
0.436855
0.440698
0.438136
0.439417
0.439417
0.438136
0.438136
0.439417
0.439417
0.444542
0.439417
0.436855
0.438136
0.438136
0.439417
0.439417
0.439417
0.439417
0.439417
0.438136
0.439417
0.440698
0.444542
0.439417
0.436855
0.439417
0.440698
0.441979
0.438136
0.439417
0.436855
0.440698
0.439417
0.444542
0.439417
0.445823
0.439417
0.439417
0.440698
0.441979
0.441979
0.447104
0.443261
0.443261
0.441979
0.440698
0.440698
0.441979
0.441979
0.440698
0.441979
0.440698
0.440698
0.443261
0.441979
0.444542
0.443261
0.444542
0.450947
0.461196
0.467601
0.468883
0.474007
0.479131
0.476569
0.474007
0.474007
0.475288
0.476569
0.477850
0.476569
0.474007
0.476569
0.476569
0.475288
0.476569
0.475288
0.475288
0.475288
0.477850
0.475288
0.475288
0.476569
0.476569
0.471445
0.476569
0.477850
0.475288
0.476569
0.476569
0.482975
0.481694
0.479131
0.481694
0.479131
0.480412
0.476569
0.479131
0.486818
0.480412
0.480412
0.481694
0.479131
0.477850
0.479131
0.479131
0.479131
0.485537
0.482975
0.480412
0.488099
0.481694
0.480412
0.484256
0.482975
0.486818
0.485537
0.486818
0.485537
0.486818
0.484256
0.482975
0.484256
0.486818
0.482975
0.484256
0.482975
0.482975
0.484256
0.484256
0.486818
0.482975
0.482975
0.484256
0.484256
0.485537
0.484256
0.485537
0.485537
0.485537
0.486818
0.485537
0.484256
0.485537
0.485537
0.484256
0.486818
0.488099
0.489380
0.490661
0.488099
0.490661
0.491942
0.490661
0.491942
0.494504
0.493223
0.495786
0.495786
0.498348
0.498348
0.497067
0.499629
0.500910
0.499629
0.500910
0.500910
0.499629
0.497067
0.498348
0.498348
0.499629
0.499629
0.498348
0.500910
0.499629
0.499629
0.506034
0.506034
0.506034
0.506034
0.507316
0.504753
0.504753
0.511159
0.507316
0.506034
0.512440
0.506034
0.508597
0.506034
0.508597
0.507316
0.506034
0.512440
0.507316
0.511159
0.509878
0.508597
0.509878
0.509878
0.507316
0.504753
0.507316
0.504753
0.506034
0.503472
0.502191
0.504753
0.502191
0.503472
0.504753
0.504753
0.503472
0.503472
0.503472
0.503472
0.506034
0.506034
0.504753
0.506034
0.506034
0.503472
0.504753
0.504753
0.504753
0.503472
0.503472
0.504753
0.504753
0.506034
0.507316
0.508597
0.507316
0.508597
0.512440
0.518845
0.517564
0.527813
0.527813
0.526532
0.529094
0.529094
0.527813
0.526532
0.527813
0.525251
0.527813
0.531656
0.534219
0.544467
0.548311
0.538062
0.543186
0.547030
0.543186
0.544467
0.553435
0.550873
0.557278
0.550873
0.554716
0.559841
0.561122
0.564965
0.575214
0.575214
0.588025
0.572652
0.573933
0.575214
0.567527
0.571370
0.572652
0.566246
0.570089
0.572652
0.572652
0.571370
0.572652
0.571370
0.568808
0.572652
0.568808
0.562403
0.555997
0.555997
0.552154
0.548311
0.549592
0.550873
0.548311
0.549592
0.549592
0.545748
0.550873
0.553435
0.558559
0.568808
0.572652
0.571370
0.579057
0.575214
0.577776
0.572652
0.575214
0.566246
0.564965
0.566246
0.557278
0.564965
0.553435
0.553435
0.553435
0.550873
0.550873
0.550873
0.553435
0.550873
0.550873
0.552154
0.549592
0.549592
0.553435
0.553435
0.554716
0.558559
0.561122
0.567527
0.576495
0.573933
0.577776
0.582900
0.581619
0.582900
0.585463
0.589306
0.596992
0.609803
0.622614
0.620052
0.620052
0.621333
0.616209
0.618771
0.611085
0.608522
0.618771
0.616209
0.622614
0.626458
0.635425
0.645674
0.636707
0.639269
0.629020
0.646955
0.641831
0.643112
0.654642
0.662329
0.673858
0.606227
0.528080
0.524237
0.519112
0.528080
0.521674
0.521674
0.525518
0.522956
0.535767
0.546015
0.544734
0.554983
0.554983
0.565232
0.598540
0.612633
0.628006
0.631849
0.640817
0.640817
0.647222
0.654909
0.658752
0.666439
0.672844
0.681812
0.684374
0.688217
0.701028
0.697185
0.699747
0.701028
0.701028
0.703591
0.706153
0.706153
0.712558
0.720245
0.726650
0.735618
0.763802
0.768927
0.772770
0.777894
0.783019
0.783019
0.789424
0.808641
0.848355
0.873977
0.890631
0.908567
0.926502
0.944437
0.953405
0.953405
0.964935
0.976465
0.971340
0.981589
0.981589
0.980308
0.991838
0.996962
1.013617
1.005930
1.003368
1.009773
1.011055
1.025147
0.989345
1.020091
1.055962
1.084146
1.102082
1.137952
1.157169
1.154607
1.163574
1.169980
1.164856
1.173823
1.177667
1.182791
1.195602
1.195602
1.210975
1.232754
1.249408
1.269906
1.273749
1.300652
1.310901
1.305776
1.301933
1.299371
1.300652
1.332680
1.349334
1.371113
1.483849
1.463451
1.513414
1.550566
1.597966
1.618464
1.583874
1.578750
1.582593
1.564658
1.564658
1.576188
1.592842
1.638961
1.674832
1.768353
1.826002
1.865716
1.916960
1.965642
2.031177
2.076016
2.143914
2.160568
2.149038
2.137509
2.149038
2.122135
2.111887
2.108043
2.101638
2.111887
2.106762
2.117011
2.128541
2.115730
2.132384
2.145195
2.181066
2.250245
2.297646
2.365544
2.461627
2.550315
2.709171
2.761696
2.762977
2.786037
2.761696
2.727106
2.730950
2.746323
2.760415
2.788599
2.819345
2.868027
2.905179
2.920552
2.930801
2.915428
2.919271
2.919271
2.916709
2.912866
2.910304
2.905179
2.915428
2.929520
2.929520
2.933363
2.942331
2.941050
2.948737
2.951888
2.969823
2.962136
2.960855
3.009537
3.096652
3.214513
3.336217
3.388742
3.470733
3.495965
3.522868
3.527993
3.549772
3.576675
3.583080
3.589486
3.617670
3.584361
3.581799
3.561301
3.531836
3.534398
3.527993
3.519025
3.526712
3.517744
3.539523
3.571550
3.618951
3.698379
3.756029
3.823927
3.867484
3.868765
3.904636
3.950756
3.983315
4.030715
4.081959
4.075554
4.089646
4.076835
4.070429
4.043526
3.998688
3.979471
3.938476
3.928227
3.932071
3.911573
3.920541
3.889794
3.902605
3.910292
3.897481
3.912854
3.910292
3.924384
3.967942
4.010218
4.110144
4.192134
4.220318
4.299747
4.348428
4.393267
4.422732
4.385580
4.384299
4.349709
4.326649
4.427856
4.507285
4.601478
4.688592
4.716776
4.748804
4.746242
4.723182
4.686030
4.669376
4.730868
4.852573
4.944812
5.012334
5.037956
5.028988
5.004648
5.034113
4.991837
4.957247
4.903440
4.857321
4.818888
4.768925
4.757395
4.752271
4.721525
4.740741
4.722806
4.729211
4.749709
4.753552
4.750990
4.770206
4.750990
4.791985
4.872694
4.977745
5.069983
5.123790
5.139163
5.189126
5.187845
5.155818
5.122509
5.077670
5.055892
5.062297
5.049486
5.049486
5.050767
5.043080
5.077670
5.123790
5.163504
5.205780
5.209623
5.241651
5.249338
5.236526
5.221153
5.195531
5.181439
5.176315
5.158380
5.119946
5.126352
5.173753
5.248056
5.360793
5.451751
5.480488
5.513796
5.467677
5.462553
5.429244
5.342129
5.290885
5.221705
5.216581
5.206332
5.155088
5.155088
5.164056
5.142277
5.146121
5.146121
5.137153
5.153807
5.148683
5.151245
5.169180
5.160213
5.176867
5.194802
5.212738
5.293447
5.394654
5.480488
5.577851
5.585538
5.702118
5.813574
5.855850
5.895564
5.835352
5.812293
5.776422
5.676496
5.638063
5.563759
5.474082
5.543262
5.636782
5.672653
5.670091
5.705961
5.700837
5.638063
5.613722
5.562478
5.479207
5.399778
5.349815
5.339567
5.315226
5.284480
5.278074
5.272950
5.262701
5.261420
5.266544
5.304977
5.381843
5.467677
5.526608
5.589381
5.644468
5.647031
5.664966
5.700837
5.695713
5.657279
5.631658
5.623971
5.554791
5.552229
5.576570
5.536856
5.533013
5.530451
5.548386
5.517640
5.521483
5.525326
5.527888
5.538137
5.576570
5.627814
5.709805
5.869942
5.959619
6.007876
6.066806
6.059120
6.001471
5.954070
5.956632
5.873361
5.825960
5.765748
5.688882
5.609454
5.586394
5.535150
5.556929
5.572302
5.500560
5.572302
5.567178
5.559491
5.576145
5.573583
5.579988
5.585113
5.633795
5.629951
5.590238
5.631233
5.663260
5.699131
5.731158
5.764467
5.810586
5.809306
5.840052
5.820836
5.804181
5.792651
5.783683
5.809306
5.790089
5.774716
5.752937
5.797776
5.764467
5.759343
5.786246
5.786246
5.845176
5.938696
6.105239
6.211571
6.287156
6.316621
6.338399
6.275626
6.219257
6.166732
6.107802
6.021968
5.972005
5.911793
5.879766
5.877204
5.879766
5.874641
5.933572
5.906669
5.907950
5.915637
5.902826
5.881047
5.856706
5.852863
5.838771
5.843895
5.840052
5.866955
5.916918
5.942540
5.982254
6.051434
6.079618
6.092429
6.114207
6.127018
6.105239
6.139829
6.132143
6.121894
6.147516
6.198760
6.258972
6.238474
6.258972
6.264096
6.210289
6.193635
6.197479
6.150078
6.151359
6.279469
6.410141
6.506224
6.530008
6.559473
6.581252
6.509510
6.440331
6.409585
6.355778
6.321188
6.353216
6.350654
6.327594
6.284037
6.249447
6.236636
6.175143
6.096996
6.041909
6.029098
5.982978
5.966324
5.943264
5.929729
5.977129
6.007876
6.079618
6.194917
6.226944
6.232069
6.207727
6.182106
6.159046
6.101396
6.062963
6.064244
6.064244
6.027092
6.023249
6.000189
6.023249
5.993784
6.011719
6.007876
6.010438
6.009157
6.023249
6.023249
6.027092
6.060401
6.170576
6.248723
6.321745
6.355054
6.411422
6.429358
6.422952
6.367865
6.362741
6.344805
6.348649
6.325589
6.320464
6.284594
6.306372
6.232069
6.226944
6.228225
6.219257
6.216695
6.180824
6.178262
6.214133
6.266658
6.374270
6.481883
6.682459
6.783666
6.884872
6.863094
6.841315
6.774698
6.722173
6.594063
6.510791
6.377557
6.289161
6.175143
6.117494
6.058563
6.081623
6.085466
6.094434
6.126462
6.181549
6.182830
6.122618
6.255853
6.304534
6.309659
6.335281
6.334000
6.303253
6.287880
6.264820
6.280193
6.230230
6.228950
6.217420
6.216138
6.200765
6.198203
6.204608
6.212295
6.214858
6.216138
6.269945
6.405741
6.446736
6.454423
6.532570
6.527446
6.509510
6.499261
6.499261
6.467234
6.451861
6.433925
6.414709
6.436488
6.387806
6.385243
6.426239
6.387806
6.390368
6.401898
6.444174
6.441612
6.489013
6.528727
6.613279
6.629934
6.646588
6.605593
6.652993
6.650431
6.649150
6.626091
6.647869
6.628653
6.610717
6.583814
6.627371
6.614561
6.633777
6.723454
6.861813
6.993766
7.116166
7.135382
7.137944
7.144350
7.159723
7.207124
7.184064
7.123852
7.096949
7.025208
6.926563
6.871476
6.780518
6.725430
6.680592
6.601163
6.588353
6.581947
6.635753
6.646002
6.646002
6.656251
6.771550
6.870194
6.947061
7.084138
7.136663
7.111041
7.084138
7.043143
7.026488
6.973963
6.888130
6.854821
6.767706
6.725430
6.684435
6.666500
6.678030
6.706213
6.661375
6.639596
6.626785
6.637034
6.613975
6.587071
6.585790
6.628067
6.671624
6.761301
6.836886
6.957309
7.018802
7.022645
7.011116
7.000866
7.109760
7.255805
7.385196
7.394164
7.362137
7.286552
7.221216
7.117446
6.972682
6.871476
6.790766
6.631910
6.531984
6.385939
6.322470
6.248166
6.203328
6.216138
6.243042
6.371151
6.471077
6.627371
6.687583
6.723454
6.713205
6.669648
6.681178
6.604311
6.571003
6.487731
6.450580
6.426239
6.340405
6.348092
6.317345
6.319908
6.436488
6.514635
6.627371
6.650431
6.682459
6.706800
6.641464
6.636339
6.550506
6.546662
6.509510
6.426239
6.419833
6.354497
6.373713
6.362184
6.363465
6.450580
6.519759
6.626091
6.663242
6.669648
6.692708
6.614561
6.619685
6.591501
6.517197
6.508229
6.453142
6.415990
6.426239
6.396773
6.428801
6.368589
6.396773
6.412147
6.401898
6.471077
6.478764
6.526165
6.564598
6.595344
6.632496
6.644026
6.733703
6.874624
6.948927
7.048267
7.005991
7.061078
7.075171
7.063641
7.084138
7.012396
7.059797
7.077733
7.008553
7.009834
6.953466
6.890692
6.872756
6.777955
6.711338
6.760020
6.768988
6.854821
6.895816
6.876600
6.867632
6.807420
6.806139
6.765144
6.704933
6.672905
6.624223
6.629348
6.601163
6.583228
6.613975
6.630629
6.729273
6.806139
6.854821
6.909908
6.904784
6.927844
6.936811
6.979088
7.143069
7.204561
7.328828
7.381353
7.319860
7.285271
7.219934
7.108479
7.066203
6.949623
6.865070
6.770268
6.713900
6.701089
6.697246
6.806139
6.895816
6.999586
7.098230
7.076451
7.053391
7.007272
6.990618
6.998304
6.954747
7.013678
7.041862
7.121290
7.164847
7.144350
7.132820
7.058516
7.071327
7.103354
7.103354
7.108479
7.070046
7.093106
7.214810
7.281427
7.337796
7.348044
7.281427
7.331390
7.363418
7.357012
7.336514
7.271179
7.246838
7.132820
7.085419
7.017521
6.925282
6.900941
6.835605
6.834323
6.842010
6.886848
6.971401
6.988056
7.068765
7.169971
7.236589
7.372386
7.335234
7.354450
7.363418
7.340358
7.374948
7.316017
7.245556
7.249400
7.194313
7.166128
7.214810
7.185345
7.199437
7.186626
7.143069
7.134101
7.086700
7.080295
7.046986
7.068765
7.157161
7.217372
7.323704
7.430035
7.472177
7.528545
7.508048
7.531107
7.491394
7.449117
7.479864
7.519578
7.587476
7.622066
7.654093
7.672029
7.616941
7.625909
7.628471
7.620784
7.661779
7.629752
7.607974
7.587476
7.497799
7.454241
7.423495
7.373532
7.351754
7.337661
7.317164
7.341505
7.363284
7.455523
7.550324
7.579789
7.707899
7.853945
7.928248
8.006681
7.990027
7.990027
7.956718
7.873447
7.838858
7.751743
7.749180
7.861917
7.947751
8.074580
8.124542
8.107888
8.141197
8.100202
8.039990
8.028461
7.973373
8.056644
8.154008
8.182192
8.235998
8.201408
8.205252
8.157851
8.168100
8.150165
8.064331
8.055364
8.031022
8.036147
8.047677
8.059207
8.148884
8.188598
8.220625
8.291085
8.370514
8.474283
8.509951
8.561194
8.589379
8.536854
8.544540
8.467674
8.440771
8.454864
8.518918
8.717489
8.777700
8.830226
8.853286
8.780263
8.831507
8.849442
8.809728
8.860972
8.834069
8.771295
8.773857
8.814853
8.805884
8.807166
8.786668
8.819977
8.791793
8.775138
8.759765
8.749516
8.743111
8.763608
8.889156
8.959617
9.084573
9.142221
9.171687
9.181936
9.137097
9.194747
9.217807
9.234461
9.274175
9.239586
9.281861
9.285705
9.320294
9.362571
9.358727
9.415096
9.383069
9.380507
9.434313
9.500045
9.612782
9.623031
9.633279
9.664025
9.657620
9.785730
9.903591
9.942024
9.957397
9.947604
9.919420
9.928388
9.898922
9.960415
9.914295
9.941198
9.920701
9.904047
9.856646
9.878425
9.913014
9.941198
10.010378
10.012940
10.105179
10.208948
10.301188
10.431860
10.436984
10.512568
10.534484
10.511424
10.471710
10.517830
10.578041
10.543451
10.562668
10.587008
10.612631
10.642097
10.622880
10.672842
10.680529
10.717681
10.780455
10.789423
10.866288
10.867570
10.980307
11.152193
11.145787
11.189344
11.262367
11.197031
11.177814
11.162441
11.089418
11.109917
11.031770
11.077888
11.147068
11.234183
11.328984
11.364855
11.395601
11.367417
11.377666
11.377666
11.348201
11.380228
11.366137
11.376385
11.377666
11.352044
11.428910
11.421224
11.524993
11.748555
11.883071
11.975310
12.011779
12.004092
11.969502
11.936193
12.001530
11.955410
11.988719
12.007936
11.978470
12.109142
12.189852
12.257750
12.352551
12.388422
12.415325
12.425574
12.453758
12.397389
12.455039
12.428136
12.517813
12.712940
12.811585
12.888451
12.858986
12.857704
12.885889
12.873077
12.876921
12.866673
12.938414
12.999907
13.053873
13.114085
13.101274
13.139707
13.160205
13.175578
13.238352
13.247319
13.410019
13.498415
13.656572
13.760341
13.744967
13.814147
13.833364
13.817990
13.889732
13.902543
13.928165
13.992220
14.055638
14.099195
14.155564
14.119694
14.181187
14.283674
14.373351
14.409222
14.438687
14.468153
14.477671
14.566066
14.636527
14.610905
14.624997
14.664711
14.672398
14.760794
14.887622
15.001640
15.194561
15.175344
15.207373
15.279114
15.348293
15.405943
15.376477
15.391850
15.421316
15.425159
15.481527
15.579550
15.607734
15.669227
15.617983
15.716627
15.735844
15.752498
15.880608
15.885733
15.981815
16.141794
16.116171
16.172539
16.337801
16.282715
16.298088
16.401857
16.440289
16.412106
16.427479
16.458225
16.527405
16.769981
16.850691
16.900654
16.927557
16.898092
16.927557
16.924995
16.944212
16.867346
17.044138
17.110125
17.131903
17.240795
17.251045
17.268980
17.356094
17.340721
17.462427
17.543135
17.691885
17.796936
17.825119
17.816153
17.872520
17.864834
17.871239
17.925045
17.925045
17.944262
17.995506
18.016003
18.166037
18.085327
18.035364
18.109669
18.141697
18.221125
18.134010
18.154507
18.258276
18.151945
18.180130
18.285179
18.219843
18.318487
18.423538
18.328737
18.387667
18.405603
18.464533
18.508091
18.492037
18.501005
18.534313
18.598368
18.590681
18.598368
18.663704
18.635521
18.597088
18.580433
18.598368
18.744413
18.776442
18.762350
18.786690
18.858431
18.821280
18.872524
19.036505
19.051048
19.086920
19.004929
19.002367
19.154818
19.021584
19.104855
19.086920
19.097168
19.071547
19.027988
19.209906
19.290615
19.331610
19.298302
19.262430
19.276522
19.304707
19.309830
19.354670
19.389259
19.376448
19.439222
19.386696
19.407194
19.416162
19.501995
19.700075
19.738508
19.670609
19.691107
19.668047
19.621927
19.687263
19.644987
19.636019
19.801281
19.751318
19.746195
19.783346
19.744913
19.743631
19.846119
19.874304
19.769255
19.788471
19.793594
19.937078
19.921705
19.887115
19.942202
20.012663
20.074665
20.151531
20.215586
20.168186
20.238646
20.287329
20.220711
20.292452
20.327042
20.337292
20.394939
20.346258
20.371880
20.471806
20.380848
20.444902
20.450027
20.497429
20.473087
20.446184
20.444902
20.476931
20.446184
20.393660
20.447466
20.473087
20.514082
20.635071
20.628666
20.726028
20.709375
20.614573
20.717062
20.741402
20.692720
20.818268
20.887447
20.825954
20.904102
20.937410
20.901539
20.892572
20.928442
20.932285
20.963032
21.037336
21.177662
21.210970
21.289118
21.335238
21.278868
21.275024
21.291679
21.386480
21.378794
21.382637
21.371107
21.341642
21.424913
21.427477
21.444130
21.473595
21.478720
21.417227
21.481281
21.482563
21.456942
21.505623
21.679279
21.608818
21.653656
21.752302
21.834291
21.829168
21.871443
21.909876
21.940622
21.884254
21.885536
21.900909
22.029018
22.071682
22.107553
22.148548
22.031969
22.079369
22.145987
22.134457
22.134457
22.257442
22.151112
22.193388
22.256161
22.276659
22.254879
22.312529
22.462418
22.546970
22.709433
22.679968
22.768362
22.755552
22.759396
22.668438
22.682529
22.636410
22.612068
22.594133
22.640253
22.665874
22.596695
22.763239
22.847792
22.845228
22.927219
22.851635
22.802952
22.884943
22.820889
22.779892
22.813202
22.823450
22.773487
22.815763
22.811920
22.900316
22.908003
22.841385
22.887505
22.914408
22.873413
22.957966
22.901598
22.864445
22.916971
22.877256
22.824732
22.792704
22.688934
22.836262
22.760677
22.782455
22.858040
23.028427
23.112228
23.089169
23.082764
23.134008
23.199345
23.096855
23.114792
23.272366
23.109667
23.221123
23.200624
22.990524
23.072515
23.035362
23.110949
23.009741
23.089169
23.107105
23.164755
23.139132
23.158348
23.244183
23.322329
23.350513
23.327454
23.323610
23.405602
23.379978
23.332579
23.363325
23.148100
23.237778
23.219841
23.198063
23.385103
23.269804
23.379978
23.519619
23.667601
23.662477
23.658634
23.808521
23.757278
23.725250
23.749592
23.777775
23.780338
23.770088
23.735498
23.812365
23.799555
23.880264
24.001968
23.960974
24.118547
24.171728
24.133295
24.119202
24.237062
24.134575
24.114079
24.111515
24.181976
24.115358
24.078207
24.124327
24.328022
24.375422
24.322897
24.427948
24.424105
24.451008
24.463818
24.353643
24.299837
24.288307
24.192225
24.198629
23.978281
23.946253
24.053865
24.062834
24.094862
24.292150
24.329302
24.244749
24.317772
24.315210
24.360048
24.480473
24.545809
24.728315
24.609175
24.607893
24.609175
24.595081
24.660418
24.879486
24.914076
24.970444
24.961477
24.984537
25.035780
25.327833
25.349611
25.388044
25.552025
25.776777
25.829304
25.863894
25.853643
25.863894
25.869017
25.910013
25.916418
25.929230
25.958694
26.031717
26.091928
26.352430
26.401112
26.428015
26.426733
26.453636
26.489508
26.513847
26.525377
26.535627
26.547157
26.738882
26.792688
26.854181
26.865711
26.915674
27.014318
27.073248
27.328859
27.419819
27.430067
27.464657
27.456970
27.476187
27.545366
27.822639
27.864916
27.879007
27.898224
27.914877
27.931532
27.964840
27.946905
27.975090
27.986620
28.013523
28.035301
28.068609
28.302397
28.303677
28.289585
28.284460
28.256277
28.234497
28.226810
28.231936
28.306240
28.377981
28.451004
28.458691
28.476625
28.474064
28.504810
28.509933
28.681601
29.010254
29.111462
29.360579
29.381077
29.328552
29.237593
29.196598
29.188911
29.214533
29.217096
29.231188
29.208128
29.136387
29.127419
29.100515
29.121014
29.135105
29.112045
29.040304
29.058239
29.110764
29.097954
28.892977
28.725153
28.766150
28.776398
28.679033
28.694407
28.939096
28.728996
28.853264
28.964720
28.895540
28.948065
29.019806
29.056959
29.090267
29.077456
29.145353
29.136387
29.119732
29.165852
29.304211
29.372108
29.405416
29.415667
29.433601
29.454100
29.460505
29.456661
29.496376
29.524559
29.520716
29.478439
29.470753
29.404137
29.345205
29.349049
29.427197
29.436163
29.411823
29.396450
29.342644
29.375952
29.256809
29.240156
29.185068
29.196598
29.179943
29.252966
29.267059
29.246561
29.336239
29.437445
29.523279
29.547619
29.773336
29.740026
29.677254
29.605513
29.578609
29.597826
29.633696
29.641382
29.627291
29.583733
29.550425
29.546581
29.560673
29.526083
29.519678
29.533770
29.593983
29.610636
29.576046
29.551706
29.582453
29.618322
29.699032
29.770773
29.738747
29.728497
29.714405
29.719530
29.756681
29.786146
29.788710
29.795115
29.805363
29.795115
29.789989
29.832266
29.822018
29.818174
29.819456
29.824579
29.861732
29.902727
29.964220
29.979593
29.983437
29.993685
29.984716
29.997528
30.029556
30.079519
30.316576
30.349884
30.438280
30.499773
30.511303
30.522833
30.543329
30.536924
30.534363
30.517708
30.524113
30.540768
30.650942
30.918756
30.929007
30.937973
30.930286
30.894417
30.864952
30.838049
30.861109
30.923882
30.939255
30.945660
30.944380
30.948223
30.937973
30.911070
30.908508
30.879044
30.880325
30.852140
30.873919
30.872639
30.848297
30.795773
30.807302
30.850859
31.039181
31.110922
31.319536
31.264448
31.224733
31.201674
31.177334
31.158117
31.120964
31.101749
31.091499
31.099186
31.159397
31.181177
31.195269
31.147867
31.191425
31.129932
31.138901
31.275978
31.170927
31.068439
31.015915
30.958265
30.924957
31.047943
31.220890
31.224733
31.443802
31.564226
31.614189
31.865133
31.861290
31.819014
31.904848
31.901005
31.916378
31.957373
32.002213
32.008617
32.012459
32.017586
32.031677
31.997087
31.936874
31.872820
31.861290
31.858728
31.912535
31.953529
31.975307
31.949686
31.895880
31.830544
31.870258
31.813889
31.836948
31.930470
31.967621
31.985558
31.974028
31.986837
32.013741
31.999649
31.970184
31.907410
31.879225
31.852322
31.867695
31.829262
31.784424
31.838230
31.865133
31.911253
31.903566
31.865133
31.861290
31.845917
31.861290
31.885632
31.939438
31.943281
31.926626
31.881788
31.856165
31.819014
31.851042
31.903566
31.943281
31.918940
31.936874
31.922783
31.913815
31.884350
31.839512
31.829262
31.802359
31.856165
31.913815
31.922783
31.889475
31.854885
31.813889
31.631973
31.525642
31.464149
31.476959
31.453901
31.469273
31.353975
31.361662
31.282232
31.205366
31.125938
31.118252
31.163092
31.073414
30.850653
30.807096
30.816063
30.900616
30.997980
30.983887
30.960827
30.949297
30.868587
30.854496
30.784037
30.778912
30.798128
30.712294
30.655926
30.611088
30.572655
30.615137
30.740685
30.677910
30.640759
30.629229
30.594639
30.481903
30.398630
30.442188
30.497276
30.557487
30.504963
30.452436
30.335857
30.311516
30.229527
30.153940
30.115507
30.098854
30.105259
30.165470
30.177000
30.174438
30.125757
30.068108
30.024549
29.791325
29.807980
29.728550
29.682430
29.640154
29.631187
29.613251
29.562008
29.554321
29.358259
29.368507
29.303173
29.344168
29.341604
29.317265
29.389006
29.482527
29.572203
29.583733
29.513273
29.526083
29.526083
29.535051
29.519678
29.449217
29.371071
29.223743
29.173780
29.128942
29.055920
29.027493
29.045429
29.054396
29.136387
29.132544
29.053116
28.958313
28.954470
28.960876
28.953190
28.939096
28.872480
28.889133
28.848139
28.739246
28.736683
28.664942
28.748213
28.834047
28.818674
28.657255
28.708500
28.863512
28.977530
28.995466
28.892977
28.830204
28.722591
28.688002
28.641882
28.685440
28.682877
28.795614
28.926287
28.957033
28.839170
28.802019
28.896820
28.802019
28.785366
28.750776
28.726435
28.684158
28.632914
28.595762
28.549643
28.546495
28.681011
28.796310
28.818089
28.810404
28.774532
28.727131
28.697666
28.688698
28.668201
28.640017
28.581085
28.609270
28.625925
28.583649
28.538809
28.554182
28.549059
28.495253
28.474754
28.543934
28.551620
28.532404
28.559307
28.586210
28.674606
28.769407
28.821932
28.837305
28.856522
28.885988
28.806561
28.736099
28.665638
28.615675
28.586210
28.465788
28.414543
28.373549
28.341520
28.299244
28.233908
28.263372
28.346645
28.485004
28.588772
28.647703
28.602865
28.629768
28.568275
28.563150
28.496534
28.435041
28.338959
28.309492
28.267216
28.250563
28.295401
28.517031
28.606709
28.583649
28.623362
28.582367
28.491409
28.391483
28.269779
28.189070
28.187788
28.157042
28.141668
28.154480
28.114765
28.128859
28.119890
28.127577
28.288996
28.362019
28.411982
28.400452
28.386358
28.354332
28.292839
28.273623
28.301805
28.262093
28.135263
28.112204
28.133982
28.173697
28.183945
28.169853
28.150637
28.191631
28.210848
28.215973
28.182665
28.125015
28.058397
27.898849
27.864260
27.823265
27.755367
27.747681
27.733587
27.727182
27.681063
27.701561
27.816860
27.895006
27.987246
28.005180
28.002619
27.978277
27.866821
27.814297
27.739994
27.674658
27.605478
27.568325
27.554234
27.434465
27.416531
27.413967
27.504927
27.613819
27.785486
27.854666
27.881569
27.846979
27.757303
27.682999
27.640722
27.620224
27.520300
27.536953
27.539516
27.557451
27.543360
27.580511
27.538235
27.485710
27.434465
27.412687
27.379377
27.435747
27.543360
27.560013
27.613819
27.624067
27.566420
27.507488
27.530548
27.570263
27.594603
27.629192
27.649691
27.554890
27.452400
27.390907
27.362724
27.320448
27.406281
27.457525
27.561295
27.413967
27.338383
27.346069
27.397314
27.419092
27.456244
27.407562
27.335821
27.258955
27.234613
27.176964
27.146217
27.203867
27.301231
27.479303
27.556170
27.581791
27.517736
27.462650
27.476742
27.449839
27.385784
27.339664
27.292263
27.238457
27.166716
27.200024
27.265360
27.357599
27.443434
27.492115
27.462650
27.406281
27.380659
27.344788
27.348631
27.392189
27.348631
27.387064
27.362724
27.421654
27.438309
27.478024
27.502363
27.535673
27.576668
27.576668
27.560013
27.536953
27.442152
27.463930
27.346069
27.301231
27.182089
27.192337
27.205149
27.166716
27.098818
27.137251
27.114191
27.128283
27.119314
27.064228
27.098818
27.091131
27.078320
27.124439
27.103941
27.161591
27.256393
27.334539
27.349913
27.357599
27.335821
27.292263
27.256393
27.217960
27.156467
27.135969
27.132126
27.157747
27.141094
27.128283
27.171841
27.098818
26.998892
26.453869
26.180323
26.451916
26.600523
26.665859
26.754255
26.699167
26.719666
26.770908
26.931047
26.929766
26.477537
26.658173
26.563372
26.586432
26.690201
26.763222
26.791407
26.790125
26.779877
26.750412
26.699167
26.670984
26.645361
26.722227
26.825996
26.882364
26.872116
26.838808
26.785002
26.715822
26.674828
26.567215
26.515970
26.459602
26.399391
26.376331
26.367363
26.309713
26.282810
26.253345
26.235409
26.264875
26.381454
26.518532
26.665859
26.713261
26.694044
26.751692
26.733757
26.682514
26.594118
26.560808
26.627426
26.618458
26.545435
26.464725
26.391705
26.029152
26.030874
26.162827
26.144892
26.130798
26.161545
26.098772
26.082117
26.065464
26.062901
26.066744
26.105177
26.183325
26.271721
26.310154
26.402391
26.412642
26.515129
26.589434
26.732475
26.577463
26.076553
26.786282
26.972042
26.615896
26.536469
26.628708
26.468569
26.414764
26.351990
26.313557
26.282810
26.362238
26.414764
26.458321
26.508284
26.514688
26.472412
26.491629
26.505722
26.390423
26.450634
26.590275
26.715822
26.724789
26.688919
26.646643
26.560808
26.492910
26.409639
26.327648
26.282810
26.204662
26.163668
26.158543
26.148294
26.113705
26.057337
26.066305
26.073992
26.053493
25.974504
26.032154
26.053934
26.048809
26.129519
26.105177
25.670885
26.166670
26.205103
26.255066
26.265314
26.276844
26.366522
26.475414
26.115425
26.549719
26.883646
26.902863
26.851618
26.792688
26.710697
26.711979
26.727352
26.773472
26.793968
26.765785
26.673546
26.618458
26.633831
26.704292
26.610771
26.559528
26.585150
26.655611
26.696606
26.526218
26.486506
26.463446
26.417326
26.394266
26.327648
26.349428
26.339178
26.321243
26.286654
26.302027
26.385298
26.487785
26.486506
26.539030
26.519814
26.471132
26.376331
26.341742
26.346865
26.300745
26.216192
26.175198
26.161106
26.135485
26.112425
26.108582
26.191853
26.240534
26.296902
26.346865
26.398109
26.319962
26.289215
26.245659
26.202101
26.162386
26.152138
26.223879
26.291779
26.400671
26.489067
26.498035
26.422451
26.364801
26.308432
26.266155
26.218756
26.196976
26.200819
26.134203
26.109861
26.082958
26.065023
26.054775
26.045807
25.792589
25.856644
25.998846
26.174356
26.298624
26.328089
26.358835
26.293499
26.247379
26.057777
25.524839
25.241278
25.854925
25.888233
25.774216
25.819054
25.847239
25.844677
25.880547
25.885672
25.885672
25.884390
25.872860
25.881828
25.869017
25.953569
26.040684
26.305029
26.338337
26.261471
26.384457
26.290937
26.164108
26.071869
26.060339
26.098772
26.157701
26.262753
26.270439
26.305029
26.255066
26.112864
26.002689
25.933510
25.842552
25.818211
25.856644
25.825897
25.831022
25.828459
25.769529
25.746469
25.775934
25.723410
25.701632
25.704193
25.701632
25.705475
25.765686
25.925823
26.089804
26.143610
26.221758
26.224319
26.170513
26.115425
26.064182
26.020624
25.947601
25.916855
25.924541
25.869455
25.906607
25.923262
25.904045
25.882265
25.872017
25.833584
25.932228
25.902763
25.987316
26.012938
26.116707
26.120550
26.121832
26.066744
26.052652
26.087242
26.073151
26.041122
25.989878
25.951445
25.896358
25.839989
25.811806
25.765686
25.725971
25.702911
25.683695
25.708036
25.672165
25.664478
25.723410
25.695225
25.642700
25.661917
25.696507
25.792589
25.959131
26.152578
26.225601
26.239693
26.205103
26.123112
26.084681
26.047527
26.011658
25.925823
25.892515
25.818211
25.745188
25.638857
25.513309
25.348890
25.111887
25.083704
24.923565
25.288118
25.403418
25.458506
25.482845
25.534090
25.564837
25.681976
25.760124
25.719130
25.722971
25.770372
25.599987
25.658916
25.710161
25.624327
25.588457
25.530807
25.534651
25.509027
25.532087
25.589737
25.665323
25.840834
25.943321
26.008657
26.035561
25.965099
25.885672
25.880547
25.767811
25.630733
25.715286
25.671728
25.566677
25.529526
25.469315
25.451378
25.346329
25.269463
25.106764
25.022211
24.770554
24.782084
24.837172
25.126699
25.389326
25.416229
25.408543
25.389326
25.394449
25.364985
25.354736
25.322708
25.356016
25.354736
25.391888
25.435446
25.400856
25.321426
25.340643
25.372671
25.390606
25.327833
25.289400
25.289400
25.368828
24.912756
25.192036
25.444412
25.435446
25.347050
25.427759
25.541777
25.924105
26.059900
26.311434
26.279408
26.360117
26.279408
26.193573
26.107740
26.057777
25.995003
25.855362
25.728535
25.766968
25.415945
25.497498
25.459064
25.474438
25.415508
25.410383
25.400135
25.446255
25.474438
25.488531
25.502623
25.509027
25.583332
25.779341
25.655073
25.565397
25.567959
25.532087
25.606392
25.762686
25.925386
26.031717
25.986879
25.959976
25.929230
25.984316
25.843395
25.771654
25.785746
25.653793
25.575645
25.560272
25.542337
25.485968
25.460346
25.442411
25.410383
25.415508
25.393730
25.380919
25.365545
25.360420
25.382200
25.375793
25.350172
25.309177
25.419352
25.475719
25.480844
25.526964
25.532087
25.509027
25.484688
25.480844
25.469315
25.507748
25.411665
25.409103
25.414227
25.546181
25.004274
25.393169
25.505905
25.530247
25.573803
25.851082
25.913857
25.910013
25.877985
25.902327
25.939478
26.002253
26.075274
26.354992
26.367804
26.361397
26.308872
26.288374
26.201260
26.141048
26.093647
26.030874
25.950165
25.920698
25.818211
25.599142
25.622202
25.678572
25.741344
25.870735
26.020624
26.188448
26.297342
26.298624
26.246098
26.184605
26.088524
26.019344
25.970661
25.979630
25.906607
25.869455
25.822054
25.761843
25.658073
25.729815
25.743908
25.652948
25.610672
25.599142
25.568396
25.519714
25.343767
25.316864
25.263058
25.210531
25.166975
25.204126
24.935095
25.125420
25.257372
25.271463
25.262497
25.282993
25.338081
25.441851
25.534090
25.603270
25.844677
25.858768
25.838270
25.801119
25.761404
25.730658
25.707600
25.665323
25.628170
25.649950
25.624327
25.655073
25.716566
25.703756
25.748594
25.739626
25.748594
25.752438
25.793432
25.771654
25.553867
25.519278
25.405260
25.602549
25.196440
25.711443
25.849800
25.903606
25.883110
25.836990
25.757561
25.737064
25.632013
25.561554
25.505184
25.321987
25.068331
25.393730
24.970966
24.890978
24.880730
25.011400
24.970406
25.026773
24.976810
24.896103
24.759024
24.943502
25.004995
25.004995
24.999870
24.971687
24.990904
24.989622
24.994747
25.020369
25.022930
25.165133
25.153603
25.070332
25.127981
25.171539
25.166414
25.229187
25.174101
25.215096
25.244560
25.279150
25.286837
25.272745
25.340643
25.338081
25.349611
25.357298
25.327833
25.329113
25.326551
25.315022
25.291962
25.259933
25.252247
25.258654
25.288118
24.887135
24.967844
24.912756
24.983217
25.052397
24.966562
24.980654
24.921724
24.994747
24.823080
24.816673
25.024212
25.021650
25.093391
25.010120
25.079300
25.078018
24.948627
25.127981
25.093391
25.092110
25.053677
25.095953
25.119013
25.078018
25.107483
25.177944
25.218939
25.194599
25.174101
25.203566
25.208691
25.201004
25.192036
25.206127
25.199722
25.243280
25.220221
25.245842
25.318865
25.320147
25.320147
25.352173
25.353455
25.332956
25.293243
25.267620
25.286837
25.326551
25.299648
25.303492
25.323990
25.331676
25.348330
25.416229
25.400856
25.395731
25.394449
25.352173
25.339363
25.341925
25.331676
25.326551
25.332956
25.367546
25.332956
25.353455
25.358580
25.358580
25.394449
25.473879
25.571241
25.852364
25.890797
25.930510
25.924105
25.853643
25.807524
25.754999
25.484688
25.161850
25.489811
25.306614
25.339924
25.337360
25.301491
25.286118
25.273306
25.243841
25.254089
25.222061
25.200283
25.183628
25.199001
25.140072
25.177223
25.119574
25.102921
25.155445
25.179785
25.201565
25.216938
25.233591
25.023491
25.016525
25.186913
25.304773
25.377796
25.372671
25.311178
25.267620
25.224064
25.149759
25.074175
25.012682
24.969124
24.912756
24.828203
24.812830
24.811550
24.775679
24.753901
24.720591
24.709061
24.665504
24.641163
24.650131
24.746214
24.775679
24.693687
24.720591
24.737246
24.706499
24.684721
24.783365
24.819237
24.748775
24.785927
24.785927
24.775679
24.714186
24.677034
24.674471
24.683439
24.688564
24.697531
24.679596
24.675753
24.674471
24.668066
24.674471
24.679596
24.691126
24.703938
24.705217
24.712904
24.744932
24.748775
24.694969
24.718029
24.716747
24.697531
24.659098
24.705217
24.703938
24.669348
24.692408
24.705217
24.701374
24.680878
24.701374
24.664223
24.615541
24.646288
24.730841
24.710342
24.741089
24.766710
24.751337
24.720591
24.701374
24.675753
24.701374
24.721872
24.778240
24.839733
24.871761
24.910194
24.906351
24.912756
24.898664
24.856388
24.824360
24.797457
24.800020
24.798738
24.938377
25.021650
24.916599
24.841015
25.044710
24.917881
24.969124
25.144636
25.186913
25.204847
25.243280
25.254810
25.227907
25.152323
25.119013
25.039585
24.966562
24.933254
24.833328
24.719311
24.588638
24.605293
24.495117
24.328613
24.310678
24.374733
24.409323
24.345268
24.261995
24.168476
24.163351
24.065989
24.215876
24.165913
24.174881
24.199223
24.200502
24.158226
24.159508
24.135168
24.131325
24.078798
24.085205
24.112108
24.154383
24.092892
24.080080
24.060863
24.064707
24.049334
24.055738
24.068550
24.077518
24.082642
24.071112
24.090328
24.065989
24.053177
24.046772
23.941130
23.946253
23.960346
23.959064
23.978281
24.075645
24.217846
24.392076
24.515062
24.594490
24.823118
24.800058
24.757782
24.706537
24.660418
24.509249
24.446474
24.304272
24.142855
24.156946
24.196659
24.226126
24.273525
24.287619
24.301710
24.305553
24.254309
24.110826
24.137730
24.219719
24.197941
24.178724
24.177443
24.141573
24.096735
24.064707
24.091610
23.966063
23.641352
23.664412
23.825830
23.821987
23.764338
23.734873
23.696440
23.687471
23.780993
23.736153
23.766899
24.102549
24.260122
24.422823
24.485596
24.497126
24.463818
24.415136
24.360048
24.283182
24.183258
24.099985
24.003902
23.961626
23.837360
23.778429
23.775867
23.759212
23.716936
23.713093
23.686190
23.690033
23.652882
23.764338
23.955221
24.183258
24.297276
24.294712
24.080769
24.009027
23.923193
24.070520
24.192225
24.147387
24.069239
23.921913
23.855295
23.719500
23.623417
23.550394
23.477371
23.262774
23.298645
23.271742
23.255087
23.269178
23.270460
23.275585
23.217936
23.247400
23.276865
23.199999
23.207685
23.225622
23.326828
23.342201
23.370386
23.372948
23.383198
23.393446
23.383198
23.340921
23.363981
23.310175
23.292238
23.284552
23.280708
23.275585
23.267899
23.258930
23.262774
23.342201
23.374229
23.281990
23.223059
23.253805
23.232027
23.219215
23.234589
23.187189
23.246119
23.316580
23.366543
23.433161
23.476717
23.498495
23.470312
23.486965
23.490808
23.425474
23.384478
23.383198
23.342201
23.324266
23.343483
23.271742
23.221779
23.221779
23.252525
23.264055
23.265335
23.274303
23.233309
23.197437
23.133383
23.157722
23.216654
23.252525
23.278147
23.299925
23.274303
23.270460
23.255087
23.256369
23.164129
23.294802
23.111605
23.109041
23.106480
23.201281
23.271742
23.191032
23.173096
23.151318
23.141069
23.129539
23.105198
23.080858
23.146194
23.212811
23.123135
23.097511
23.125696
23.202562
23.353731
23.396008
23.249962
23.495934
23.633011
23.580486
23.570238
23.535648
23.493372
23.379354
23.321705
23.256369
23.264055
23.239714
23.153881
23.032175
22.811171
22.780424
22.779142
22.720213
22.611319
22.611319
22.557512
22.554951
22.539577
22.698435
22.661282
22.533173
22.462711
22.323822
22.304605
22.322540
22.300762
22.327665
22.352005
22.498051
22.660751
22.759396
22.749147
22.817045
22.847792
22.800390
22.810638
22.819607
22.791422
22.783735
22.796547
22.764519
22.437840
22.451931
22.481396
22.510862
22.633848
22.749147
22.908003
22.965652
22.952841
22.938749
22.936188
22.910564
22.886225
22.893911
22.946436
22.978464
23.014334
23.217279
23.262117
23.274929
23.228809
23.223684
23.195501
23.212154
23.149382
23.121197
23.123758
23.110949
23.090450
23.091732
23.096855
23.101980
23.105824
23.098137
23.072515
23.089169
23.089169
23.093012
23.094294
23.122478
23.209593
23.210875
23.213436
23.215998
23.236496
23.251869
23.241621
23.268524
23.291582
23.385103
23.377417
23.331297
23.321049
23.333858
23.344109
23.355639
23.323610
23.319767
23.304394
23.292864
23.276209
23.265961
23.280052
23.274929
23.267242
23.263399
23.230091
23.230091
23.189095
23.248026
23.265961
23.250587
23.213436
23.180128
23.199345
23.181408
23.183971
23.137852
23.167316
23.148100
23.153225
23.196781
23.269804
23.356918
23.496559
23.591360
23.817490
23.745749
23.741905
23.717564
23.652227
23.486965
23.389603
23.287115
23.244839
23.232027
23.126978
23.085981
23.074451
23.050112
23.018084
22.811171
22.802202
22.779142
22.748396
22.715088
22.606195
22.607475
22.674093
22.653595
22.560076
22.538296
22.586979
22.592102
22.544703
22.569042
22.467836
22.407093
22.430153
22.319979
22.273859
22.287951
22.319979
22.250799
22.239269
22.217489
22.241831
22.246956
22.115002
22.229019
22.271296
22.223896
22.195711
22.113722
22.115002
22.066320
22.100910
22.131657
22.109879
22.131657
22.111158
22.111158
22.173933
22.188025
22.226458
22.263609
22.327665
22.343039
22.377628
22.312292
22.331509
22.284107
22.305885
22.375065
22.478834
22.586447
22.664595
22.708151
22.759396
22.770926
22.717119
22.709433
22.645378
22.590290
22.545452
22.505737
22.399406
22.357130
22.339195
22.249517
22.263609
22.181620
22.202116
22.208523
22.157278
22.134218
22.103472
22.111158
22.071445
22.031731
22.027887
22.079132
22.094505
22.122688
22.079132
22.115002
22.099628
22.122688
22.135500
22.152155
22.190588
22.312292
22.445526
22.633848
22.758114
22.829855
22.842667
22.837542
22.811920
22.797829
22.768362
22.770926
22.846510
22.922094
22.966934
22.979744
22.973339
22.951561
22.890068
22.890068
22.814482
22.759396
22.665874
22.624880
22.574917
22.528797
22.487803
22.462181
22.431435
22.405811
22.357130
22.349443
22.396845
22.512142
22.710714
22.904160
23.029707
23.215998
23.230091
23.249308
23.230091
23.078920
22.940561
22.817575
22.639503
22.552389
22.498583
22.282825
22.171371
22.130375
22.089380
22.058634
22.000984
21.900015
21.823149
21.823149
21.843647
21.770624
21.761656
21.753969
21.775749
21.729630
21.734753
21.770624
21.756533
21.674541
21.687353
21.716818
21.715536
21.710413
21.693758
21.739878
21.769342
21.793684
21.782154
21.859020
21.956383
22.055029
22.154955
22.267691
22.327902
22.358648
22.353525
22.317654
22.325340
22.345839
22.406050
22.467543
22.463699
22.471386
22.443201
22.374022
22.329184
22.285625
22.239506
22.043499
21.779593
21.607925
21.536182
21.527216
21.550276
21.506718
21.366690
21.307760
21.424339
21.662624
21.881693
22.003397
22.040548
22.216448
22.192106
22.145987
22.074245
22.012753
21.937168
21.865425
21.764219
21.647638
21.575897
21.497749
21.319290
21.248829
21.225769
21.234737
21.232176
21.198866
21.211678
21.232176
21.259079
21.379501
21.510174
21.628035
21.676716
21.758707
21.749739
21.731804
21.743334
21.788172
21.804827
21.712587
21.647251
21.589602
21.565260
21.703619
21.843260
21.944466
21.973932
21.999554
21.991867
21.979055
21.891941
21.802265
21.681841
21.680559
21.620348
21.510174
21.731804
21.874006
21.826605
21.772799
21.758707
21.939342
21.836853
21.822762
21.840696
21.858633
21.808670
21.799702
21.788172
21.786892
21.727961
21.693371
21.701057
21.711306
21.727961
21.684402
21.643408
21.588320
21.612661
21.688246
21.611380
21.555012
21.560137
21.566542
21.506330
21.479427
21.508892
21.511456
21.444838
21.378220
21.356441
21.296230
21.279575
21.288544
21.124563
21.183493
21.192461
21.118156
21.083567
21.101503
21.077162
21.048977
21.028481
21.079723
21.162996
21.065632
21.040010
21.070757
21.161715
21.145060
21.046415
21.065632
21.129686
21.106627
21.018230
20.911192
20.934252
20.881727
20.836889
20.818954
20.868916
20.926565
20.888132
20.827921
20.906069
20.924004
20.779240
20.745932
20.726715
20.701092
20.587074
20.535831
20.514051
20.450592
20.355791
20.348104
20.389099
20.389099
20.336575
20.303267
20.241774
20.285330
20.341700
20.217432
20.203341
20.157221
20.176437
20.152096
20.144409
20.090603
20.066263
20.067543
20.103415
20.052170
20.047047
20.070107
20.052170
20.020144
20.004770
20.051605
19.987551
19.951679
19.936306
19.913246
19.846630
19.891468
19.808197
19.769764
19.776169
19.733892
19.676243
19.659590
19.677525
19.586567
19.564787
19.649340
19.732613
19.745422
19.837662
19.868408
19.882500
19.817163
19.838943
19.767202
19.764639
19.783855
19.742861
19.844067
19.991394
20.034952
19.910685
19.927340
19.935026
19.909403
19.847910
19.876095
19.991394
20.022141
19.996519
19.988832
19.974739
19.883781
19.845348
19.760796
19.662151
19.548134
19.443083
19.374676
19.209414
19.124861
18.995470
18.865290
18.898598
18.866570
18.652626
18.419466
18.003939
17.757366
17.803486
18.221125
18.216000
18.205751
18.168600
18.246746
18.226250
18.080204
17.984121
17.998213
17.961061
17.895725
17.763771
17.711246
17.741993
17.821421
17.862417
17.991808
18.091734
18.062267
17.917503
17.812454
17.881634
17.709967
17.838076
18.013586
18.204470
18.185253
18.196783
18.141697
18.144258
18.007181
18.062267
18.166037
18.344110
18.514496
18.811031
18.958357
18.916080
18.543282
18.253754
18.217882
18.352398
18.307558
17.955257
17.958500
17.885477
17.822702
17.775301
17.647192
17.470400
17.244781
17.101297
17.155104
17.091049
16.957815
16.964079
16.943581
17.129341
17.085783
16.917959
16.830845
16.832125
16.796255
16.915398
16.933332
16.993544
17.135746
17.061441
17.060162
16.935894
17.102438
16.978170
16.984575
16.973045
16.946144
16.718107
16.399113
16.143524
16.032068
15.891148
15.820237
15.971407
16.022652
15.916320
15.698533
15.557611
15.798458
15.761307
15.820237
15.795897
15.822800
15.824080
15.747214
15.708781
15.672911
15.727998
15.656257
15.569141
15.524303
15.520460
15.587077
15.634478
15.631916
15.583234
15.628073
15.616543
15.596045
15.566580
15.540957
15.533271
15.516617
15.546082
15.529428
15.544801
15.552487
15.583234
15.508930
15.517898
15.537114
15.539677
15.444875
15.369450
15.402758
15.430942
15.338703
15.337421
15.331017
15.363044
15.281054
15.252870
15.273367
15.233653
15.238777
15.174722
15.188814
15.172160
15.161911
15.105543
15.129884
15.122197
15.163192
15.154224
15.174722
15.190095
15.186252
15.183690
15.124760
15.092731
15.076077
15.113230
15.042768
15.038925
15.037644
15.040207
14.979995
14.896065
14.910157
14.949871
14.930655
14.878130
14.865318
14.894784
14.903751
14.981898
15.142036
15.261178
15.435408
15.525084
15.753779
15.790931
15.854986
15.862673
15.889576
15.929290
15.992064
16.062365
16.073895
16.053398
15.995748
15.883011
15.913757
15.834330
15.792053
15.738247
15.747214
15.729280
15.674191
15.722874
15.952190
16.039305
16.171259
16.272465
16.362143
16.396732
16.383921
16.368547
16.432602
16.404419
16.380077
16.298088
16.221222
16.189194
16.149479
16.052116
15.953471
15.916320
15.856108
15.795897
15.739528
15.838173
16.040586
16.250687
16.440289
16.560713
16.786636
16.804571
16.816101
16.845566
16.821226
16.799448
16.784075
16.780231
16.689272
16.618813
16.502232
16.421522
16.356186
16.237045
16.120464
16.058971
16.048723
16.065376
16.030787
16.020538
16.007727
16.184519
16.372841
16.491983
16.623936
16.717457
16.749485
16.791761
16.844286
16.921152
16.863503
16.924995
16.890406
16.830193
16.764858
16.737955
16.689272
16.565006
16.467642
16.330564
16.333126
16.485579
16.661089
16.886562
16.990332
17.106281
17.167774
17.169054
17.151119
17.110125
16.999949
16.955111
16.921803
16.838531
16.632275
16.657896
16.560532
16.515694
16.427298
16.407431
16.413836
16.362593
16.375402
16.531696
16.691835
16.750765
16.859659
16.936525
17.004423
17.165211
17.110125
17.154963
17.197239
17.140871
17.122934
17.056318
17.021729
16.938457
16.929489
16.860310
16.783443
16.796255
16.714264
16.748854
16.760384
16.687361
16.678392
16.642523
16.668144
16.720669
16.693766
16.794973
16.891056
16.998669
17.066566
17.087065
17.039663
17.060162
17.087065
17.072971
17.016603
17.012760
17.007635
17.043507
17.067848
17.061441
17.096031
17.140871
17.167774
17.158806
17.215174
17.245920
17.239515
17.162649
17.183147
17.160088
17.139589
17.207487
17.233110
17.288197
17.283072
17.263855
17.165211
17.160088
17.154963
17.117811
17.040945
17.011478
16.928207
17.087065
17.313818
17.400934
17.458584
17.527761
17.659857
17.616301
17.481785
17.416449
17.438227
17.315241
17.103861
17.106422
17.028275
16.986000
16.855185
16.741167
16.707859
16.766788
16.879526
16.978170
17.149837
17.365063
17.461145
17.513670
17.664982
17.652170
17.636797
17.621424
17.580429
17.558651
17.686760
17.685480
17.444633
17.557369
17.557369
17.351112
17.085924
17.237095
17.142294
17.239656
17.429260
17.522779
17.648327
17.753378
17.844336
17.836649
17.740566
17.738005
17.761065
17.652170
17.591959
17.522779
17.411324
17.376734
17.493315
17.527905
17.688042
17.804623
17.848179
17.781563
17.813589
17.790529
17.743130
17.641922
17.553526
17.461287
17.433104
17.351112
17.290901
17.258873
17.193537
17.198662
17.153824
17.265280
17.506126
17.639360
17.776438
17.803341
17.825119
17.859709
17.823839
17.841774
17.791811
17.777719
17.782843
17.685480
17.712383
17.744410
17.800779
17.686760
17.634235
17.553526
17.623987
17.732880
17.795654
17.940418
18.033939
18.297991
18.242903
18.248028
18.205751
18.256996
18.259558
18.085327
18.053301
18.007181
17.963623
17.852167
17.757366
17.692030
17.765053
17.767614
17.740711
17.747118
17.779144
17.945688
17.990526
18.108387
18.103264
18.118637
18.068674
18.014868
17.952093
17.958500
17.973873
17.852167
17.797081
17.758648
17.793238
17.772739
17.635662
17.651035
17.694593
17.772739
17.765053
17.836794
17.890600
17.981560
18.076361
18.139133
18.232655
18.237780
18.241623
18.192940
18.186535
18.119917
18.090452
18.118637
17.996933
18.050737
18.073797
18.140415
18.205751
18.185253
18.244184
18.258276
18.376137
18.000774
18.345390
18.419695
18.429943
18.313364
18.203190
17.902130
17.387129
17.279371
17.224283
17.525343
17.609894
17.771313
17.889174
18.126179
18.333860
18.280056
18.309521
18.315926
18.413290
18.451723
18.465815
18.468376
18.495279
18.527308
18.671391
18.752100
18.767473
18.698294
18.714949
18.720074
18.740570
18.761068
18.720074
18.634239
18.656017
18.652174
18.609898
18.641926
18.657299
18.712387
18.818718
18.770037
18.736727
18.768755
18.817436
18.786690
18.734165
18.644487
18.723917
18.559935
18.294748
18.338305
18.365208
18.460011
18.339586
18.357521
18.304996
18.267845
18.230694
18.205070
18.201227
18.226851
18.249910
18.324213
18.315245
18.425421
18.342148
18.410048
18.403641
18.239660
18.296028
18.050058
18.041090
18.117956
17.987284
18.205751
18.232655
18.308239
18.405603
18.299271
18.359484
18.289022
18.274931
18.244184
18.112230
18.062267
18.039207
18.034084
17.986683
17.866261
17.888039
17.856010
17.946970
18.069954
18.073797
18.126324
18.248028
18.258276
18.209595
18.122480
18.121199
17.990526
18.026398
17.900850
17.908537
17.866261
17.799643
17.774021
17.740711
17.799643
17.806047
17.782988
17.636944
17.784269
17.798361
17.838076
17.745836
17.748398
17.727901
17.791956
17.765053
17.665127
17.578012
17.375599
16.933474
16.721951
16.679674
16.614338
16.908991
17.016603
16.971766
16.930771
16.910273
17.005074
17.079378
16.988419
17.125498
17.111404
17.190834
17.256168
17.175461
17.163931
17.148558
17.103718
17.108843
16.973045
17.029415
16.980732
17.003792
16.967922
16.928207
16.926928
16.938457
16.988419
16.893618
17.010199
17.035820
17.056318
17.144714
16.998669
16.978170
16.989700
17.025572
16.983295
17.103718
17.107561
17.122934
17.130621
17.007635
16.942301
16.982014
16.989700
16.857748
16.894899
16.809065
16.832125
16.825720
16.719389
16.702734
16.689922
16.707859
16.663021
16.682236
16.664301
16.719389
16.752697
16.645084
16.771914
16.955111
17.098595
17.122934
17.151119
17.080658
17.128059
17.096031
17.002512
16.625868
16.706577
16.870558
16.778318
16.906429
17.138308
16.802660
17.092188
16.850061
16.893618
16.888494
16.620745
16.478542
16.626499
16.422804
16.115339
16.172989
16.212704
16.356186
16.334408
16.272915
16.222952
16.466362
16.383089
16.321596
16.535540
16.708488
16.798166
16.459955
16.566286
16.810976
16.489422
16.476610
16.566286
16.604719
16.663651
16.694397
16.935244
16.960865
16.866064
16.798166
16.771263
16.663651
16.649559
16.661089
16.553476
16.643152
16.848129
16.945492
16.860939
16.675180
16.616249
16.666212
16.694397
16.789198
16.853252
16.707209
16.522730
16.643152
16.677742
16.746922
16.752047
16.671337
16.634186
16.789198
16.755890
16.992893
17.198521
17.023008
17.152401
17.175461
17.198521
17.076815
16.720669
16.867996
16.892338
16.861591
16.825720
16.893618
16.753979
16.532349
16.613058
16.632275
16.682236
16.812908
16.827002
16.761665
16.862871
16.930771
16.944862
16.711702
16.706577
16.869278
16.893618
16.903868
16.827002
16.775757
16.771914
16.700172
16.679674
16.602808
16.589998
16.736042
16.821877
16.691204
16.510569
16.317753
16.289570
16.576536
16.443302
16.452269
16.617531
16.843004
16.930119
16.991611
17.303570
17.147276
17.216455
17.326630
17.207487
17.189552
17.233110
17.215174
17.213894
17.106281
16.941019
16.900024
17.007635
17.025572
17.120373
17.203644
17.368906
17.431681
17.376593
17.359938
17.221581
17.257450
17.636656
17.814871
17.787968
17.563776
17.479223
17.466412
17.594521
17.712383
17.763626
17.723913
17.671387
17.680355
17.553526
17.521500
17.258873
17.392107
17.607332
17.543278
17.585554
17.349831
17.164072
17.223003
17.431822
17.357517
17.270403
17.307554
17.262716
17.269123
17.053898
17.207630
17.296026
17.438227
17.575306
17.677794
17.768751
17.841774
17.684198
17.539434
17.497158
17.485628
17.659857
17.574024
17.630392
17.846899
17.376734
17.759783
18.016003
17.986683
17.748398
17.700998
17.945688
18.283899
18.148102
18.154507
18.235216
18.201908
18.160913
18.181410
18.208313
18.182692
18.142977
18.128885
18.050737
18.087891
18.085327
18.101982
17.932877
17.938002
17.715090
17.776583
17.799643
17.962343
18.374857
18.538837
18.486914
18.444637
18.311401
18.429264
18.439512
18.352398
18.321651
18.366489
18.431826
18.475384
18.524065
18.579151
18.567621
18.563778
18.531752
18.524065
18.567621
18.635521
18.712387
18.753382
18.768755
18.734165
18.679077
18.680359
18.653456
18.644487
18.714949
18.740570
18.746977
18.671391
18.438231
18.101301
18.057745
17.996252
17.831671
17.958500
17.963623
18.011024
17.967466
18.013586
18.176287
18.076361
18.137854
18.141697
18.148102
18.173723
18.154507
18.248028
17.713810
18.022554
17.620289
17.877790
18.107107
18.208313
18.146820
17.847044
17.826546
17.759928
17.788113
17.873947
17.952093
18.189096
18.267244
18.064831
17.612602
17.699717
17.877790
17.961061
18.060987
18.072517
18.035364
18.028959
18.144258
18.312082
18.035364
18.186535
18.224968
18.255714
18.283899
17.835514
18.117355
18.062267
18.013586
18.025116
18.018711
18.036646
17.989246
17.916224
17.900850
17.922628
17.907255
17.871384
17.853449
17.827827
17.708685
17.531893
17.603634
17.657440
17.868822
17.976435
18.187817
18.172443
17.715090
17.544704
17.610041
17.466557
17.361361
17.433104
17.407480
17.199944
17.226847
17.313961
17.547121
17.488190
17.337021
17.263998
17.253750
16.959097
16.843655
16.915398
17.062723
17.254889
17.288197
17.426556
17.448334
17.153681
17.399652
17.572601
17.753378
17.563776
17.334457
17.408762
17.190975
17.248625
17.516375
17.556089
17.550964
17.530466
17.485628
17.456163
17.436947
17.431822
17.392107
17.360081
17.339582
17.316523
17.312679
17.280653
17.278090
17.274246
17.217878
16.988562
16.656614
16.402956
16.718739
17.014671
16.926928
16.908991
16.784725
16.801378
16.769352
16.766788
16.885931
17.006355
17.158806
17.299726
17.452177
17.550821
17.771313
17.844336
17.659857
17.529186
17.440790
17.443352
17.430540
17.139730
16.900166
16.730919
16.729637
16.764227
16.759102
16.755259
16.755259
16.792412
16.892338
16.990982
17.012760
17.072971
17.088345
17.178022
17.258732
17.321505
17.377874
17.468832
17.491892
17.495735
17.371468
17.331755
17.372749
17.403496
17.375311
17.349689
17.290758
17.317661
17.219017
17.215174
17.116529
17.122934
17.049911
16.964079
16.871840
16.925646
16.870558
16.860310
16.821877
16.891056
16.949987
17.184427
17.288197
17.298445
17.236952
17.285635
17.386841
17.340721
17.312538
17.313818
17.293322
17.251045
17.280510
17.340721
17.354815
17.391966
17.407339
17.384279
17.462427
17.432961
17.206207
17.161367
17.134464
17.183147
17.115248
17.034538
16.958954
17.052475
17.093470
17.035820
17.047350
17.053755
17.066566
16.961515
16.948706
16.996105
17.033258
16.992262
16.971766
17.029415
16.998669
16.973045
16.893618
16.912834
16.925646
16.920521
16.896181
16.902586
16.994825
17.088345
17.092188
17.119091
17.117811
17.194677
17.157524
17.106281
17.072971
17.026852
16.994825
16.969202
16.923084
16.897461
16.912834
16.949987
16.943581
16.994825
17.003792
17.092188
17.134464
17.162649
17.186991
17.249763
17.290758
17.286915
17.275385
17.276667
17.213894
17.176741
17.139589
17.099874
17.119091
17.180584
17.342003
17.326630
17.368906
17.379154
17.412464
17.412464
17.450897
17.498297
17.620144
17.561213
17.516375
17.461287
17.362642
17.384420
17.317804
17.247343
17.197380
17.175602
17.202505
17.174320
17.117952
17.088488
17.070551
17.079519
17.114109
17.207630
17.385702
17.572742
17.620144
17.477942
17.522779
17.652170
17.804623
17.878925
17.921202
17.895580
17.864834
17.803341
17.713663
17.676512
17.563776
17.503563
17.416449
17.351112
17.283215
17.247343
17.339582
17.422853
17.507406
17.556089
17.597084
17.593241
17.558651
17.571463
17.536873
17.515093
17.451038
17.439508
17.451038
17.430540
17.413887
17.426697
17.388264
17.402357
17.392107
17.442070
17.552246
17.690603
17.764908
17.817432
17.827682
17.817432
17.781563
17.802059
17.812309
17.770033
17.757221
17.711102
17.690603
17.657295
17.652170
17.607332
17.591959
17.565056
17.545839
17.506126
17.458725
17.465130
17.480503
17.502283
17.524061
17.548403
17.526623
17.586834
17.588116
17.576586
17.582993
17.704697
17.864834
17.987820
18.044188
18.272369
18.295427
18.292866
18.280056
18.277493
18.259558
18.203190
18.105825
18.077641
18.041771
18.008461
17.971310
17.921347
17.914942
17.957218
17.971310
17.999495
18.059706
18.068674
18.126324
18.135290
18.132729
18.121199
18.112230
18.108387
18.112230
18.167318
18.213438
18.262119
18.246746
18.230093
18.195503
18.212156
18.150663
18.134010
18.090452
18.144258
18.118637
18.082766
18.045614
18.060987
18.022554
18.062267
17.977716
18.043051
17.964905
17.972591
17.970030
17.987965
18.037928
18.132729
18.185253
18.189096
18.207033
18.246746
18.149384
18.077641
18.058424
18.048176
18.002056
17.952093
17.948250
17.864979
17.817577
17.862417
17.962343
18.053301
18.113512
18.137854
18.172443
18.196783
18.224968
18.359484
18.445316
18.554211
18.843060
18.901989
18.912237
18.882772
18.818718
18.786690
18.705980
18.586838
18.502287
18.425421
18.360085
18.298592
18.296028
18.244785
18.193541
18.089771
17.904013
17.376881
16.929630
16.867996
16.701452
16.752697
17.138308
17.281792
17.626408
17.935293
17.507406
17.235813
17.210192
17.214035
17.476660
17.526623
17.386984
17.279371
17.182007
16.912977
16.591278
16.806503
16.774475
16.759102
16.741167
16.591278
16.595121
16.725794
16.748854
16.825720
16.832125
16.935894
16.704016
16.475979
16.453550
16.520168
16.470205
16.390776
16.329283
16.139681
16.149929
16.242168
16.292131
16.307505
16.230639
16.198612
16.208860
16.180676
16.117903
16.034630
15.901396
15.611418
15.502524
15.387225
15.186252
15.068391
14.968465
14.887097
14.869162
14.698775
14.641127
14.562979
14.451524
14.245791
14.171488
14.147146
14.284225
14.373901
14.272695
14.118962
14.081810
14.051064
13.881959
13.816072
13.863474
13.607254
13.444554
13.141570
13.071110
12.964778
12.860427
12.830962
12.883487
12.907828
12.736160
12.619580
12.645203
12.625986
12.488909
12.415886
12.218436
12.064704
11.880225
11.522399
11.345607
10.901749
10.689715
10.389938
10.262891
10.086099
10.000265
9.861906
9.715725
9.628611
9.464629
9.170802
9.076001
9.017071
9.040130
9.054222
9.123402
9.093936
9.125964
9.056785
8.996572
8.915863
8.930840
8.957744
9.088416
9.157595
9.171687
9.147346
9.070480
9.016674
8.847569
8.745081
8.716897
8.595192
8.573414
8.415838
8.257574
8.294726
8.680337
8.937838
8.853974
8.691275
8.641312
8.572132
8.427368
8.371592
8.290883
8.210174
8.171741
8.034663
7.887336
7.787613
7.692812
7.628757
7.582637
7.567265
7.548048
7.571108
7.726120
7.641568
7.531394
7.458371
7.339229
7.230049
7.208271
7.226206
7.259514
7.165994
7.109626
7.118593
7.031478
6.973829
6.884152
6.848416
6.830480
6.797172
6.863789
6.997023
6.902222
6.912471
6.994461
7.044424
7.043143
7.030332
6.950903
6.908628
6.845853
6.765144
6.719025
6.667780
6.585790
6.493551
6.408998
6.346811
6.323751
6.246885
6.207171
6.137991
6.103402
6.255853
6.383963
6.535132
6.624809
6.690145
6.720891
6.732421
6.688864
6.665804
6.590219
6.458266
6.357059
6.336562
6.227668
6.180268
6.178987
6.194360
6.222544
6.186673
6.257133
6.285318
6.305815
6.253290
6.241760
6.214858
6.181549
6.111088
6.086747
6.029098
5.912518
5.874641
5.847738
5.836209
5.802900
5.779840
5.790089
5.795213
5.752937
5.726034
5.714504
5.655573
5.632514
5.638919
5.682477
5.691444
5.788808
5.841333
5.855425
5.815711
5.816992
5.810586
5.754218
5.631233
5.614578
5.559491
5.531307
5.492874
5.478782
5.442911
5.388248
5.402340
5.380562
5.394654
5.480488
5.631658
5.731583
5.823822
5.885315
5.900688
5.889159
5.867380
5.876348
5.895564
5.932716
5.966881
5.692726
5.868236
5.961756
5.920761
5.891296
5.833646
5.833646
5.791370
5.746531
5.768310
5.742688
5.697850
5.687601
5.714504
5.445473
5.536431
5.640200
5.670947
5.665823
5.682477
5.750375
5.865674
5.933572
6.043747
6.036060
6.038622
6.025811
6.025811
6.112926
6.142391
6.052714
5.973286
5.978411
5.915637
5.882328
5.832366
5.778559
5.765748
5.706818
5.694006
5.749094
5.777278
5.904107
5.996346
6.059120
6.061682
6.077055
6.075774
6.080899
6.057839
5.987378
5.891296
5.808024
5.736283
5.678633
5.660698
5.658136
5.690163
5.750375
5.743969
5.715785
5.674790
5.622265
5.549242
5.515934
5.485187
5.437787
5.394654
5.334442
5.312664
5.294728
5.266544
5.262701
5.306258
5.386968
5.493299
5.661123
5.730302
5.762330
5.761048
5.814855
5.817417
5.791795
5.732864
5.698275
5.653436
5.612441
5.552229
5.517640
5.502266
5.489455
5.463833
5.471520
5.526608
5.598349
5.618846
5.632938
5.636782
5.616284
5.539418
5.550948
5.576570
5.600911
5.574008
5.527888
5.509953
5.459990
5.402340
5.353659
5.329318
5.262701
5.220425
5.183272
5.181992
5.147402
5.135872
5.134591
5.107688
5.066692
5.057725
5.138434
5.288323
5.476645
5.615003
5.718772
5.768735
5.777703
5.768735
5.739270
5.716210
5.703399
5.676496
5.625252
5.372875
5.316507
5.243484
5.246047
5.239641
5.202489
5.219143
5.185835
5.220425
5.258857
5.276793
5.334442
5.331880
5.329318
5.402340
5.539418
5.657279
5.734146
5.782827
5.804606
5.771297
5.743113
5.717491
5.658561
5.595787
5.530451
5.459990
5.379281
5.312664
5.267825
5.231955
5.220425
5.221705
5.108969
5.025697
5.052600
5.087190
5.248609
5.406184
5.471520
5.540699
5.567603
5.572727
5.533013
5.495861
5.467677
5.431806
5.372875
5.367751
5.335723
5.240922
5.205051
5.248609
5.438211
5.480488
5.493299
5.682901
5.816136
5.913499
5.996771
5.991221
6.059120
6.065526
6.087304
6.039904
5.987378
6.033498
6.119332
6.074493
6.084742
6.230787
6.255128
6.278188
6.398612
6.372989
6.306372
6.369146
6.474196
6.512073
6.568441
6.528727
6.319908
6.330156
6.360903
6.287880
6.189235
6.049595
5.911237
5.870798
5.822116
5.779840
5.735002
5.673509
5.667103
5.658136
5.713223
5.713223
5.700412
5.658136
5.604330
5.651730
5.661979
5.728596
5.854144
5.984816
6.110364
6.098834
6.042466
6.132143
6.086023
6.093709
5.970724
5.922042
5.879766
5.784965
5.751656
5.679914
5.663260
5.761905
5.878485
6.048871
6.135986
6.178262
6.188511
6.184668
6.118051
5.960475
5.952789
5.850301
5.810586
5.646606
5.644043
5.784965
5.832366
5.793932
5.704255
5.801619
5.850301
5.897701
5.865674
5.840052
5.818273
5.784965
5.801619
5.660698
5.605611
5.626108
5.622265
5.606892
5.527463
5.482625
5.473658
5.458284
5.440349
5.472801
5.516358
5.512515
5.534294
5.435649
5.393373
5.436930
5.443336
5.461271
5.415152
5.421557
5.429244
5.424119
5.410027
5.417714
5.474082
5.468958
5.527888
5.540699
5.568883
5.671371
5.655998
5.725178
5.716210
5.703399
5.776422
5.703399
5.679058
5.561197
5.483050
5.449741
5.378000
5.444617
5.576570
5.641906
5.819979
5.890440
5.890440
5.882753
5.893002
5.859693
5.818698
5.778984
5.772578
5.763611
5.722616
5.689307
5.639344
5.539418
5.485612
5.439493
5.393373
5.306258
5.244765
5.297290
5.322912
5.374156
5.438211
5.585538
5.588100
5.673934
5.711086
5.713648
5.748238
5.691869
5.629095
5.489455
5.503548
5.572727
5.507391
5.444617
5.383124
5.372875
5.365189
5.349815
5.385686
5.358783
5.333161
5.310102
5.322912
5.244765
5.312664
5.410027
5.449741
5.509953
5.507391
5.588100
5.641906
5.661123
5.676496
5.691869
5.659842
5.604754
5.567603
5.448460
5.383124
5.401060
5.376719
5.340848
5.311383
5.340848
5.430525
5.526608
5.545824
5.561197
5.613722
5.621408
5.593225
5.603473
5.616284
5.634220
5.620128
5.588100
5.513796
5.453585
5.415152
5.416433
5.361345
5.310102
5.292166
5.349815
5.476645
5.584257
5.721334
5.800763
5.814855
5.805887
5.686745
5.731583
5.700837
5.723897
5.714929
5.616284
5.600911
5.574008
5.677777
5.778984
5.953214
6.033498
6.088585
6.082180
6.048871
6.123175
6.127018
6.120613
6.121894
6.094991
6.025811
5.996346
5.898983
5.767029
5.738845
5.686320
5.627389
5.579988
5.506966
5.473658
5.491593
5.559491
5.660698
5.795213
5.864393
5.937416
6.036060
5.957913
5.987378
5.933572
5.927166
5.833646
5.769591
5.715785
5.674790
5.644043
5.605611
5.579988
5.478782
5.464690
5.383980
5.433087
5.540699
5.608598
5.794357
5.813574
5.918624
5.953214
5.957913
5.863111
5.927166
5.913074
5.933572
5.913074
5.872079
5.833646
5.793932
5.722191
5.655573
5.690163
5.686320
5.678633
5.555648
5.565897
5.632514
5.695288
5.761905
5.733721
5.860549
5.900264
5.913074
5.900264
5.955351
6.009157
6.077055
6.000189
6.013000
6.019406
5.977129
5.855425
5.746531
5.676071
5.636357
5.540275
5.483906
5.448035
5.474938
5.485187
5.555648
5.651730
5.852863
5.895139
5.952789
5.840052
5.888734
5.952789
5.998908
5.988659
6.030936
5.987378
5.954070
5.896420
5.838771
5.743969
5.709380
5.650449
5.567178
5.489030
5.486468
5.559491
5.743969
5.891296
6.025811
6.164170
6.228225
6.087304
6.062963
6.133424
6.155202
6.059120
5.978411
5.942540
5.883609
5.806743
5.718348
5.681196
5.691444
5.679914
5.642763
5.729877
5.820836
5.936134
5.945102
5.995065
6.023249
5.998908
6.183387
6.148797
6.121894
6.098834
6.066806
6.009157
5.970724
5.937416
5.910512
5.957913
6.009157
6.097553
6.141110
6.200041
6.226944
6.237193
6.302529
6.407579
6.434482
6.374995
6.303253
6.254571
6.290442
6.359622
6.346811
6.371151
6.368589
6.290442
6.277631
6.250728
6.222544
6.254571
6.214858
6.143116
6.027817
5.935577
5.808024
5.791370
5.756781
5.702974
5.682477
5.691444
5.763186
5.898983
6.011719
6.094991
6.093709
6.139829
6.161608
6.157764
6.105239
6.062963
6.016844
5.951508
5.881047
5.842614
5.788808
5.765748
5.746531
5.709380
5.647887
5.600486
5.735002
5.863111
5.983535
6.025811
6.078336
6.050152
6.045028
6.006595
5.966881
5.901545
5.809306
5.768310
5.669666
5.661979
5.654293
5.647887
5.690163
5.743969
5.825960
5.886171
5.901545
5.956632
6.013000
6.033498
6.094991
6.079618
6.039904
6.015563
5.982254
6.015563
6.084742
6.111645
6.162889
6.153921
6.092429
5.969443
5.992503
6.043747
6.107802
6.144954
6.200041
6.221819
6.244879
6.284594
6.220539
6.274344
6.262815
6.326870
6.235912
6.201322
6.061682
5.974567
5.863111
5.823398
5.800338
5.751656
5.743969
5.663260
5.623546
5.592800
5.627389
5.682477
5.736283
5.779840
5.820836
5.942540
5.969443
6.045028
6.088585
6.064244
6.014281
5.973286
5.922042
5.863111
5.773435
5.714504
5.678633
5.686320
5.865674
5.997627
6.138548
6.216695
6.238474
6.206446
6.239755
6.216695
6.194917
6.192354
6.209009
6.164170
6.124456
6.074493
5.982254
5.910512
5.870798
5.849020
5.859268
5.896420
5.922042
5.970724
5.960475
5.974567
5.991221
6.015563
5.974567
5.984816
5.924604
5.881047
5.813149
5.777278
5.747813
5.778559
5.799057
5.863111
5.911793
5.906669
5.920761
5.943821
5.966881
6.029655
6.068088
6.180824
6.091147
6.051434
5.991221
5.950226
5.955351
5.975849
6.015563
6.009157
5.965600
5.939978
5.922042
5.974567
6.019406
6.091147
6.165451
6.137267
6.161608
6.206446
6.194917
6.159046
6.118051
6.083461
6.093709
6.043747
5.969443
5.923323
5.875923
5.822116
5.786246
5.750375
5.755499
5.849020
5.964319
6.066806
6.194917
6.243598
6.269220
6.283312
6.312778
6.266658
6.253847
6.198760
6.142391
6.100115
5.986097
5.913074
5.866955
5.901545
5.972005
6.121894
6.217976
6.299967
6.317902
6.321745
6.326870
6.321745
6.273064
6.220539
6.187230
6.157764
6.114207
6.069369
5.969443
6.000189
5.965600
5.952789
5.892577
5.883609
5.863111
5.957913
6.045028
6.075774
6.075774
6.111645
6.101396
6.161608
6.191073
6.202603
6.147516
6.066806
6.091147
6.119332
6.065526
6.050152
6.009157
5.972005
5.877204
5.829803
5.764467
5.752937
5.723472
5.711942
5.735002
5.782403
5.837490
5.887453
5.973286
6.050152
6.080899
6.075774
6.135986
6.175700
6.193635
6.087304
6.074493
6.119332
6.138548
6.127018
6.124456
6.093709
6.083461
6.118051
6.133424
6.051434
5.961756
5.922042
6.019406
6.118051
6.230787
6.306372
6.352492
6.349929
6.369146
6.419109
6.420390
6.428077
6.408860
6.394768
6.415266
6.405017
6.380676
6.361459
6.338399
6.237193
6.214133
6.243598
6.212852
6.196198
6.229506
6.264096
6.137267
6.197479
6.201322
6.175700
6.150078
6.219257
6.253847
6.220539
6.275626
6.303810
6.330713
6.334557
6.325589
6.250004
6.183387
6.152640
6.093709
6.100115
6.093709
6.129580
6.176981
6.237193
6.270501
6.343524
6.349929
6.383238
6.401174
6.389644
6.403736
6.365303
6.348649
6.342243
6.338399
6.410141
6.495975
6.508229
6.471077
6.409585
6.366027
6.366027
6.331438
6.350654
6.439050
6.521040
6.609436
6.705519
6.717049
6.650431
6.678616
6.746514
6.751638
6.726016
6.738827
6.737546
6.747795
6.764449
6.818255
6.870780
6.913057
6.986079
7.073889
7.131539
7.143069
7.118728
7.077733
6.950903
6.862508
6.777955
6.657532
6.597320
6.533265
6.473053
6.442307
6.526165
6.745233
6.920743
6.802882
6.626091
6.837472
6.851564
6.892559
6.845159
6.818255
6.765730
6.670929
6.632496
6.578690
6.573565
6.527446
6.691426
6.743951
6.863094
7.001452
7.145631
7.107198
7.164847
7.199437
7.166128
7.114884
7.023926
6.868913
6.811264
6.798453
6.674186
6.583228
6.556325
6.446150
6.598601
6.736960
6.830480
6.818950
6.815107
6.783080
6.843291
6.913752
7.007272
7.093106
6.981650
6.874038
6.704933
6.654970
6.633191
6.528141
6.633191
6.681873
6.727993
6.744647
6.929125
6.975245
7.046986
7.123852
7.123852
7.143069
7.219934
7.316017
7.360856
7.365980
7.450532
7.540075
7.527264
7.713024
7.452960
7.490112
7.560573
7.636158
7.682277
7.801419
7.673309
7.797576
7.806544
7.960276
8.192441
8.238561
8.329518
8.428164
8.598347
8.543260
8.548384
8.530448
8.641904
8.818696
8.860972
8.871221
8.841756
9.072353
9.128130
8.809136
8.946214
9.119163
9.170406
9.362571
9.313890
9.393317
9.562423
9.690928
9.863877
9.913840
9.922808
10.112411
10.603527
10.642097
10.525516
10.999523
11.186783
10.844728
10.714057
10.866508
11.071484
11.320017
11.284146
11.235464
11.328984
11.083014
10.999742
11.057391
11.091981
11.026645
10.988212
10.915189
10.819107
10.967714
10.985650
11.001023
10.862664
10.742241
10.556481
10.546232
10.641034
10.715338
10.742241
10.779392
10.455275
10.296199
10.317978
10.235988
10.157841
9.918275
9.915577
9.973226
10.178202
10.261474
10.133364
10.266598
10.312717
10.475417
10.643377
10.443525
10.341038
10.275702
10.423028
10.364098
10.283388
10.056634
10.077131
10.107878
10.029731
10.023325
9.913151
9.868176
9.775937
9.670886
9.406980
9.320691
9.172084
9.127245
9.206673
8.977356
8.842841
8.969274
9.083291
8.770703
8.606722
8.432492
8.495858
8.609877
8.762327
8.761046
8.718770
8.753360
8.600909
8.508670
8.392090
8.319067
8.112810
8.011603
8.035944
8.094874
8.129464
8.061565
8.101280
8.028257
8.071815
8.083344
8.201205
8.199924
8.183270
8.234514
8.214017
8.263980
8.339564
8.307537
8.281915
8.347251
8.340845
8.175584
8.064128
8.196081
8.358781
8.427960
8.344688
8.257574
8.394651
8.190957
8.110248
7.923207
7.870885
8.009244
7.986184
7.887539
7.799143
7.819641
7.728683
7.651817
7.483993
7.393035
7.559292
7.683558
7.746332
7.756581
7.811668
7.862912
7.882129
7.819355
7.821917
7.764267
7.677153
7.724554
7.729678
7.609254
7.538794
7.779641
7.819355
7.780922
7.921843
7.892377
7.982055
7.922129
7.787613
7.591605
7.541642
7.385348
7.340224
7.523421
7.560573
7.513172
7.377376
7.435025
7.525983
7.680996
7.660499
7.595162
7.713024
7.716867
7.702775
7.650250
7.689964
7.764267
7.782203
7.788609
7.779641
7.679715
7.555449
7.514453
7.538794
7.677153
7.769392
7.877004
7.856507
7.874442
7.814230
7.802701
7.883410
7.956432
8.025898
7.941345
7.835014
7.699218
7.674877
7.788895
7.869604
7.910599
8.029741
7.963124
8.007962
8.139915
8.211658
8.200128
8.300054
8.432007
8.577849
8.526605
8.389527
8.157648
7.966764
7.837373
7.651817
7.604416
7.628757
7.671033
7.767116
7.808111
7.832452
7.814517
7.568545
7.699218
7.899069
7.904193
7.956718
7.966968
7.940064
7.992589
7.954156
7.956718
7.819641
7.735088
7.826046
7.782489
7.783770
7.712029
7.608260
7.654379
7.655660
7.740213
7.799143
7.737650
7.746618
7.563421
7.537799
7.464777
7.428905
7.411965
7.469615
7.502923
7.426057
7.397873
7.374813
7.525983
7.577227
7.650250
7.622066
7.713024
7.637439
7.695088
7.719429
7.737364
7.751457
7.766830
7.783484
7.868037
7.935935
7.974654
8.065612
8.165538
8.141197
8.198847
7.961843
7.979778
8.177068
8.059207
8.188598
8.034865
7.883696
7.982341
7.924691
7.872166
7.966968
8.114294
8.274431
8.064331
8.174505
8.096358
8.018211
8.133511
8.151445
8.195004
8.127105
8.157851
8.337205
8.207814
8.120699
8.121981
8.086110
8.064331
7.963124
8.034865
7.975935
8.154008
8.205252
7.986184
8.013087
7.872166
7.977216
8.151445
7.974654
7.932378
7.840138
7.923410
8.018211
7.951594
7.963124
7.978498
7.963124
7.954156
7.992589
8.037428
7.997714
8.080985
8.034865
8.083548
8.109169
8.161695
8.142478
8.064331
8.082267
8.111732
8.113012
8.107888
8.023335
7.927253
7.872166
8.171944
8.195004
8.142478
8.155289
8.136072
8.235998
8.251371
8.275712
8.312864
8.388450
8.442255
8.406181
8.269104
8.338284
8.272947
8.433084
8.483047
8.458707
8.415150
8.557351
8.500983
8.401057
8.458707
8.652153
8.819977
8.957054
9.020517
9.005144
9.064075
9.089697
9.097383
9.057670
8.980803
9.025641
9.234461
9.317733
9.295954
9.322857
9.206277
9.082010
9.266489
9.119163
8.919311
8.518327
8.528575
8.754048
8.745081
8.640031
8.328724
8.253731
8.823820
8.950649
9.083291
8.948776
8.914186
9.210120
9.196028
9.108913
9.046140
9.021798
9.061513
8.971836
8.851412
8.829634
8.724584
8.733551
8.861661
8.947495
8.941090
8.943651
8.905218
9.041015
8.929560
8.837320
8.727145
8.628501
8.540105
8.487580
8.461958
8.581100
8.488861
8.633625
8.674621
8.573414
8.711772
8.846288
8.801450
8.875753
8.786077
8.782233
8.796325
8.509358
8.774547
8.751487
8.802731
8.857818
8.723302
8.715615
8.540105
8.478612
8.387654
8.411306
8.357500
8.252450
8.348532
8.275510
8.181990
8.302413
8.365187
8.456144
8.447177
8.376717
8.347251
8.367748
8.356218
8.137151
8.348532
8.271667
8.126902
7.975732
7.883493
7.714591
7.555735
7.541642
7.565983
7.540361
7.660785
7.856793
7.883696
7.920848
7.737650
7.717153
7.837576
7.868323
7.865760
7.942626
7.549329
7.671033
7.732526
7.901631
7.949032
7.941345
7.878572
7.810673
7.838858
7.806830
7.815798
7.993871
8.048958
7.958000
7.852950
7.860636
8.082267
8.130948
8.093797
7.928535
7.918286
7.982341
7.963124
7.955438
7.913161
8.061769
8.146321
8.241123
8.255215
8.139915
8.366671
8.534494
8.503545
8.556070
8.668807
8.837913
8.777700
8.680337
8.595784
8.566319
8.626531
8.689304
8.831507
8.901967
8.942963
9.180655
9.208839
9.222931
9.288267
9.385631
9.539363
9.656339
9.743454
10.009923
9.913014
9.809245
9.676011
9.613237
9.678573
9.892517
9.925825
9.879705
9.837429
9.843835
10.084682
10.101336
10.238414
10.166672
10.198700
10.002691
10.269160
10.403675
10.504882
10.667718
10.722805
10.797110
10.831698
10.972620
11.088138
11.200874
11.336671
11.385353
11.431473
11.555739
11.857449
12.073955
12.385859
12.462726
12.725751
12.848737
12.934570
12.907667
13.022966
13.235789
13.303688
13.360056
13.297282
13.402332
13.494572
13.700130
13.703973
13.751373
13.757779
13.830802
13.915354
13.975566
14.135067
14.153002
14.196560
14.155564
14.114569
14.231149
14.200403
14.224744
14.217057
14.236274
14.233711
14.163251
14.040265
14.014644
13.976211
13.946745
13.878847
13.828884
13.831446
13.919842
13.868598
13.877565
14.108164
14.049233
14.215776
14.028735
13.507328
13.352315
12.852041
12.362080
11.875101
11.435284
10.871002
10.593634
10.378408
10.385876
10.212928
10.033574
9.842690
9.597864
9.497938
9.541495
9.604269
9.609394
9.439008
9.318129
9.350156
9.355281
9.373216
9.286101
9.215641
9.165678
9.160554
9.174645
9.149024
9.164397
9.204111
9.274571
9.327096
9.093936
8.867182
8.669497
8.728427
8.591349
8.528575
8.560602
8.614408
8.713054
8.859098
8.777108
9.023080
9.385631
9.532957
9.783168
9.907434
9.847223
9.797260
10.011204
10.036000
10.039844
10.399832
10.483104
10.506300
10.503737
10.649783
10.902160
10.938030
10.535765
10.599820
10.939311
11.068703
11.100948
11.284146
11.473749
11.601229
11.711404
11.831827
11.977872
12.063023
11.950286
11.942599
12.007936
12.305151
12.453758
12.617739
12.844893
12.756497
12.692443
12.675789
12.760341
12.688600
12.443910
12.164630
12.016022
12.005774
12.051893
12.119791
12.192814
12.351670
12.757779
13.067805
13.565032
13.956349
14.071649
14.338761
14.510428
14.800508
14.929898
15.037511
15.286800
15.368791
15.435408
15.454624
15.481527
15.694849
15.834489
16.025372
15.736966
16.027775
15.938098
16.050835
16.089268
16.077738
16.085424
16.139231
16.172539
16.281433
16.473598
16.762295
16.808414
16.862221
16.933962
16.986488
17.042856
17.289478
17.357376
17.441929
17.554665
17.793093
17.910954
18.053156
18.319769
18.437630
18.470940
18.565741
18.802063
18.994228
19.095436
19.421286
19.541710
19.840996
19.746195
19.728258
19.760286
19.875586
19.949888
20.060064
20.383410
20.462839
20.546110
20.711937
20.697845
20.775991
20.790085
20.838766
20.769587
20.749088
20.767025
20.843889
20.997622
21.033493
21.203283
21.213531
21.146915
21.189192
21.282711
21.307053
21.340361
21.360859
21.377514
21.422352
21.404417
21.482563
21.515871
21.658781
21.763832
21.793297
21.845821
21.891941
21.711306
21.279575
21.347473
21.306479
21.416653
21.440994
21.547325
21.621630
21.716431
21.790735
21.439713
21.502487
21.551168
21.783049
21.747177
21.740772
21.763832
21.822762
21.904753
22.022614
22.299719
22.445765
22.532879
22.774769
22.804234
22.758114
22.742741
22.817045
22.936188
22.886225
22.824732
22.845228
22.773487
22.760677
22.660751
22.567230
22.578760
22.605663
22.556982
22.708151
22.781174
22.850353
22.875975
22.783735
22.806795
22.745304
22.722244
22.549295
22.571074
22.545452
22.490364
22.421185
22.300762
22.363535
22.313572
22.285389
22.153435
22.099628
22.086819
22.033012
22.113722
22.126532
22.241831
22.298199
22.270016
22.262329
22.158560
22.139343
22.004827
21.921795
21.777029
21.656607
21.601519
21.624578
21.680946
21.643795
21.683510
21.460598
21.351316
21.712587
21.551168
21.590883
21.562698
21.658781
21.729242
21.666468
21.711306
21.681841
21.697214
21.672873
21.893223
21.903471
22.004679
22.068733
22.344557
22.370178
22.395802
22.411175
22.462418
22.491884
22.516224
22.660751
22.704308
22.773487
22.818325
22.887505
22.861883
22.875975
22.965652
22.981026
22.991274
23.024584
23.263399
23.294146
23.360762
23.371012
23.371012
23.395351
23.428661
23.501684
23.549084
23.786743
23.750872
23.566395
23.534367
23.390884
23.198719
23.645823
23.882826
23.980190
23.967379
24.073709
24.240906
24.260122
24.299837
24.420261
24.511219
24.548370
24.753939
24.755219
24.812868
24.838491
24.814150
24.816711
24.803902
24.838491
24.324770
24.469534
24.756500
24.629671
24.787247
24.837210
24.938417
25.089586
25.193317
25.448256
25.683979
26.076555
26.335775
26.384457
26.435701
26.508724
26.548437
26.825996
26.665859
26.419888
26.515970
26.638956
26.704292
26.763222
26.815748
26.681232
26.731195
26.854181
26.770908
26.829840
26.959230
27.042501
27.386509
27.374979
27.405725
27.423662
27.496685
27.542803
27.823919
27.920002
27.972527
28.007116
28.099356
28.367733
28.394634
28.461252
28.512497
28.561178
28.832182
28.870615
28.920578
28.984632
29.003849
29.038439
29.051250
29.292681
29.288837
29.349049
29.413103
29.446413
29.456661
29.432320
29.423353
29.427197
29.428476
29.457943
29.529684
29.574522
29.857889
29.864294
29.838673
29.836109
29.864294
29.905289
29.975750
30.007776
30.028275
30.012901
30.029556
30.033400
30.055178
30.287109
30.347322
30.372944
30.401129
30.406252
30.416502
30.469027
30.444685
30.525394
30.542049
30.540768
30.536924
30.535643
30.561266
30.850859
30.889292
30.900822
30.930286
30.871357
30.855984
30.917477
30.954628
30.985374
31.021246
31.044306
31.086582
31.381029
31.379747
31.393839
31.433554
31.424585
31.441240
31.439959
31.463018
31.445084
31.483517
31.541166
31.559101
31.596252
31.868977
31.880507
31.981714
31.944561
31.971464
31.929188
31.949686
31.950968
31.940718
31.952248
32.015022
32.071392
32.105980
32.385563
32.400936
32.399654
32.381721
32.335602
32.400936
32.431683
32.445774
32.425278
32.427841
32.403500
32.399654
32.368908
32.413746
32.354816
32.398373
32.439369
32.456024
32.502144
32.552105
32.602070
32.965118
32.958714
33.043266
33.167534
33.509968
33.554806
33.667542
33.886990
33.461666
33.597462
33.562870
33.518032
33.547497
33.601303
33.611553
33.600025
33.628208
33.579525
33.621803
33.528282
33.541092
33.541092
33.507786
33.510345
33.529564
33.537251
33.542374
33.570557
33.652550
33.629490
33.551342
33.515472
33.521877
33.462944
33.393768
33.318180
33.328430
33.324589
33.346367
33.234909
33.337399
33.291279
33.305370
32.965878
32.591419
32.569260
32.940777
33.024048
33.062481
33.012520
32.829323
32.633312
32.466770
32.477020
32.477020
32.447556
32.491112
32.506485
32.635876
32.635876
32.539795
32.578228
32.606411
32.610252
32.551323
32.565414
32.544918
32.543636
32.600006
32.579506
32.624348
32.525703
32.593601
32.535950
32.541077
32.520576
32.535950
32.625626
32.621784
32.769112
32.233612
32.606411
32.669186
32.883129
32.808826
32.788326
32.820354
32.701214
32.706337
32.744770
32.724274
32.699932
32.642281
32.648685
32.639721
32.676872
32.667904
32.665340
32.667904
32.657654
32.635876
32.661499
32.688400
32.628189
32.789608
32.867756
32.954868
32.906189
32.936935
32.910030
32.913876
32.935654
32.899784
32.931808
32.908749
32.929249
32.930531
32.976650
32.977928
32.925404
33.021488
32.988178
32.979210
33.033016
33.143192
33.463848
33.434383
33.376732
33.438225
33.093609
32.985996
33.217876
33.244781
33.156384
32.968063
32.974468
32.957813
32.978310
33.046211
33.020588
32.980873
32.979591
32.993683
32.991123
33.123074
33.288338
33.378014
33.352390
33.255028
33.256310
33.165352
33.124355
33.061581
33.144855
33.214035
33.161507
33.211472
33.248623
33.280651
33.269119
33.292179
33.251186
33.193535
33.164070
33.192253
33.208908
33.206348
33.152542
33.106422
33.039803
32.982155
32.874542
32.880947
32.928349
32.891197
32.809204
32.765648
32.788708
32.748993
32.699032
32.709282
32.734901
32.761806
32.875824
32.811768
32.870697
32.884792
32.870697
32.989841
32.792553
32.850201
32.918098
32.959095
32.879665
32.585014
32.434742
32.348911
32.320724
32.134968
32.113186
32.023510
31.777040
31.962801
31.871843
31.614342
31.566940
31.128502
31.154123
31.312979
31.552546
31.412905
31.570480
31.510269
31.416748
31.348850
31.377035
31.389845
31.415468
31.441090
31.500019
31.520517
31.541016
31.566637
31.496176
31.485928
31.528204
31.478241
31.423155
31.497458
31.475679
31.456463
31.393688
31.398813
31.380878
31.402657
31.380878
31.351412
31.355255
31.406500
31.479523
31.473116
31.535891
31.617882
31.667845
31.634535
31.647346
31.598665
31.680655
31.656315
31.675531
31.678093
31.588415
31.669125
31.612757
31.743429
31.620443
31.694748
31.684498
31.665281
31.701153
31.612757
31.584572
31.628130
31.715244
31.761364
31.876663
31.908691
31.988119
31.918940
31.977871
31.979151
32.015022
32.003490
31.994524
31.988119
32.027832
31.999649
31.940718
31.911253
31.844635
31.894598
31.825418
31.872820
31.798515
31.811327
31.704996
31.603788
31.512831
31.693466
31.710121
31.574324
31.625568
31.619162
31.676811
31.491053
31.503862
31.493614
31.525642
31.825418
31.981714
31.904848
31.888193
31.872820
31.728056
31.753677
31.766489
31.801079
31.688341
31.620443
31.616600
31.573042
31.605070
31.462868
31.599945
31.651190
31.856165
31.803640
31.879225
31.794672
31.733181
31.661438
31.532047
31.506426
31.382158
31.382158
31.225864
31.177183
31.045229
30.816063
30.734074
30.662331
30.712294
30.721262
30.780193
30.611088
30.663612
30.623898
30.575216
30.225683
30.320484
30.271803
30.105259
30.034800
29.836163
29.870752
29.734957
29.718302
29.568413
29.605564
29.568413
29.560726
29.332638
29.196840
29.208370
29.139191
29.186592
29.140472
29.239117
29.285236
29.185310
29.199404
28.967524
28.922443
28.974968
28.955751
28.851982
28.892977
28.904507
28.969843
28.951908
28.762306
28.711061
28.556047
28.437603
28.442728
28.331272
28.292839
28.133982
28.210848
28.077614
28.068645
28.128859
28.185226
28.103235
28.122452
28.131420
28.118608
28.039181
27.706684
27.741274
27.729744
27.720778
27.688749
27.549109
27.371691
27.375534
27.330696
27.187214
27.101379
27.062946
27.061665
27.025795
26.729305
26.788237
26.838200
26.906097
26.726744
26.783112
26.783112
26.690872
26.549952
26.322525
26.282810
26.073992
26.036839
25.670885
25.769529
25.846395
25.714441
25.779778
25.656792
25.760561
25.814367
25.863049
25.692663
25.660635
25.651669
25.636295
25.635014
25.490250
25.341204
25.337360
25.383480
25.261776
25.214375
25.192596
25.150320
25.149040
25.020929
24.888416
24.774397
24.875605
24.718029
24.849983
25.011400
25.085705
25.080580
25.020369
25.130543
25.083143
25.134386
24.952471
24.988340
24.961437
24.853827
24.687283
24.577108
24.580952
24.520741
24.301710
24.131325
24.182568
24.173599
24.049334
23.983997
23.782272
23.912945
23.997498
24.221689
24.224253
24.269091
24.276777
24.226814
24.205036
24.149948
24.173008
24.166603
24.121765
23.982124
24.023119
24.014153
23.911663
23.934723
23.813019
23.970594
24.080769
24.221689
24.276777
24.351082
24.369017
24.317772
24.312649
24.238344
24.262686
24.272934
24.333145
24.471504
24.535559
24.802620
24.828241
24.883329
24.817993
24.855145
24.870518
24.916637
24.942261
24.920481
24.983255
25.005033
24.988380
24.942261
24.958914
25.002472
25.011438
25.016563
24.926888
25.001190
24.998629
25.058840
25.229187
25.290680
25.311178
25.320147
25.317583
25.265059
25.294523
25.265059
25.291962
25.441851
25.496937
25.540495
25.712723
25.670446
25.660198
25.693506
25.738344
25.734501
25.671728
25.742188
25.717848
25.706318
25.715286
25.676853
25.754999
25.801119
25.871580
25.854925
25.830584
25.838270
25.848520
25.877985
25.888233
25.965099
25.989441
26.026592
25.962538
25.993284
25.998409
25.998409
26.024031
26.063744
26.340900
26.342180
26.383177
26.340900
26.307590
26.351149
26.357553
26.367804
26.290937
26.301186
26.325527
26.434420
26.429295
26.479258
26.493351
26.456198
26.461323
26.416485
26.431858
26.420328
26.454918
26.337057
26.367804
26.381895
26.354992
26.349867
26.208946
26.179482
26.134642
26.205103
26.142328
26.165388
26.160265
26.153858
26.147453
26.219194
26.287094
26.302467
26.358835
26.320402
26.307590
26.321684
26.335775
26.344744
26.356274
26.346024
26.283251
26.390863
26.281969
26.266596
26.171795
26.224319
26.193573
26.317841
26.410078
26.467728
26.508724
26.469009
26.420328
26.413921
26.403673
26.356274
26.390863
26.416485
26.390863
26.442106
26.380613
26.431858
26.387020
26.417765
26.346024
26.379333
26.402391
26.421608
26.419046
26.392143
26.449793
26.428015
26.470291
26.406235
26.439545
26.457479
26.454918
26.483101
26.499756
26.511286
26.470291
26.497194
26.453636
26.454918
26.490788
26.527941
26.524097
26.460041
26.390863
26.420328
26.488226
26.452354
26.460041
26.480539
26.515129
26.538189
26.697887
26.700449
26.770908
26.865711
26.782438
26.828558
26.879803
26.905424
26.924641
26.849056
26.836245
26.866991
26.899019
26.828558
26.786282
26.586432
26.649204
26.245659
26.158543
26.003531
26.074430
26.238411
26.316559
26.302467
26.379333
26.529221
26.609930
27.065561
27.538960
27.518463
27.312206
27.490278
27.417255
27.435192
27.492842
27.444159
27.524868
27.565863
27.826483
27.789330
27.754740
27.739367
27.761147
27.785486
27.706059
27.715027
27.691967
27.702215
27.780363
27.752178
27.822639
27.939219
27.964840
27.850822
27.862352
27.841856
27.830326
27.730400
27.674030
27.656096
27.625349
27.606133
27.548483
27.562576
27.485710
27.543360
27.452400
27.460087
27.416531
27.348631
27.381941
27.290983
27.264080
27.298668
27.260237
27.203867
27.362724
27.394751
27.465212
27.376816
27.352474
27.310198
27.325571
27.298668
27.171841
27.143656
27.097536
27.118034
27.055260
26.918909
26.885599
26.952217
26.894567
26.890724
26.924032
27.026520
27.017553
26.929157
26.908659
26.890724
27.030363
27.011147
27.116198
27.114916
27.168722
27.222528
27.195625
27.090576
27.109793
27.080326
27.113636
27.166161
27.182816
27.245588
27.292990
27.349358
27.358326
27.251993
27.267366
27.159756
27.068796
26.922752
26.927876
26.888163
26.895849
27.226372
27.217403
27.099543
26.637066
26.425684
26.029152
26.012938
25.939915
25.801558
25.815649
25.766968
25.997564
26.105177
26.114145
26.085960
26.068026
26.043684
26.016781
25.983473
25.929667
25.911732
25.863049
25.857925
25.711880
25.687538
25.664478
25.602985
25.600424
25.565834
25.622202
25.650387
25.700350
25.618359
25.669603
25.663198
25.677290
25.738783
25.806681
25.906607
25.896358
25.937353
25.918137
25.872017
25.936071
25.942478
25.857925
25.825897
25.778498
25.802837
25.880985
25.831022
25.946321
25.960413
25.960413
25.892515
25.925823
25.952726
26.006533
25.919418
25.883547
25.977068
26.001408
25.892515
25.910450
26.084681
26.189730
26.233288
26.187168
26.226881
26.306311
26.363960
26.294781
26.299904
26.298624
26.311434
26.294781
26.216633
26.284531
26.329370
26.347305
26.267878
26.242254
26.266596
26.273001
26.137205
26.171795
26.273001
26.369083
26.346024
26.344744
26.372927
26.438263
26.470291
26.376770
26.433138
26.445950
26.476696
26.346024
26.321684
26.321684
26.358835
26.253784
26.162827
26.157701
26.167952
26.280687
26.161545
26.307590
26.358835
26.381895
26.258909
26.228163
26.223038
26.305029
26.308872
26.205103
26.166670
26.117989
26.203821
26.007814
26.109020
26.111582
26.105177
25.970661
25.919418
25.960413
26.023188
26.048809
25.872017
25.829741
25.737501
25.790028
25.727253
25.717005
25.787464
25.769529
25.736221
25.558147
25.553022
25.497936
25.453941
25.296366
25.259214
25.287397
25.382200
25.393730
25.278431
25.338642
25.375793
25.438568
25.348890
25.268181
25.314301
25.327112
25.183628
25.076017
25.045271
24.864075
24.803864
24.605293
24.560453
24.605293
24.587357
24.479744
24.282494
24.285055
24.328613
24.331175
24.236374
24.304272
24.390106
24.456722
24.347830
24.323488
24.345268
24.415728
24.360641
24.288898
24.290180
24.296585
24.304272
24.178724
24.173599
24.168476
24.171038
24.160789
24.270964
24.470816
24.616861
24.696289
24.639921
24.592520
24.693727
24.744970
24.636078
24.605331
24.648888
24.629671
24.650169
24.589958
24.565617
24.557930
24.586115
24.551525
24.584833
24.609175
24.601488
24.563055
24.578428
24.655294
24.703976
24.734722
24.751375
24.718067
24.741127
24.761625
24.670668
24.607893
24.597645
24.607893
24.789808
24.821836
24.862831
24.910233
24.969164
24.940979
24.920481
24.928167
24.919201
24.970444
24.930731
24.924324
24.939697
24.990942
25.025532
25.001190
24.974287
24.981974
24.988380
24.915358
24.939697
24.937136
24.949947
24.997347
24.985817
25.031937
25.017845
25.051153
25.161289
25.184349
25.207409
25.192036
25.180506
25.139511
25.188192
25.193317
25.267620
25.175383
25.209970
25.174101
25.281713
25.252247
25.250967
25.261215
25.286837
25.311178
25.217657
25.236874
25.235594
25.280432
25.293243
25.329113
25.420073
25.463629
25.489250
25.440569
25.397013
25.413666
25.495657
25.411104
25.402136
25.382919
25.395731
25.377796
25.298367
25.261215
25.320147
25.471315
25.512310
25.580210
25.845957
25.813931
25.808805
25.711443
25.731939
25.740908
25.806244
25.743469
25.758842
25.790871
25.856207
25.886953
25.743469
25.653793
25.630733
25.674290
25.555147
25.562834
25.620483
25.664042
25.710161
25.651230
25.726814
25.751156
25.779341
