1532076237.000000
1.000000
52.00
67.50
64.33
67.25
65.60
72.83
79.29
84.12
88.11
91.10
93.82
95.92
97.77
99.36
100.73
99.69
98.88
98.17
97.58
97.00
95.71
94.23
92.74
91.42
90.20
89.08
88.04
87.07
86.17
85.33
84.58
83.94
83.39
82.91
82.46
82.00
81.57
81.00
80.49
80.03
79.63
79.24
78.84
78.45
78.09
77.74
77.43
77.15
76.88
76.64
76.43
76.25
76.11
75.96
75.80
75.62
75.46
75.29
75.14
74.98
75.18
74.87
74.97
74.78
74.90
74.18
73.32
72.45
71.55
70.68
69.75
68.85
67.93
66.98
66.03
65.70
65.35
65.00
64.63
64.27
64.12
64.07
64.13
64.18
64.42
64.65
64.88
65.12
65.27
65.45
65.60
65.72
65.82
65.90
66.02
66.13
66.23
66.42
66.57
66.68
66.73
67.00
67.40
67.85
68.25
68.65
69.10
69.48
69.82
70.08
70.33
70.30
70.23
70.32
70.38
70.52
70.65
70.78
70.78
71.37
71.92
72.42
72.98
73.57
74.07
74.52
74.98
75.43
75.85
76.25
76.58
76.93
77.22
77.50
77.70
77.87
78.02
78.17
78.15
78.17
78.22
78.28
78.28
78.28
78.10
77.92
77.73
77.53
77.40
77.23
77.07
76.88
76.67
76.43
76.17
75.92
75.68
75.47
75.27
75.08
74.93
74.58
74.12
73.60
73.13
72.68
72.17
71.70
71.28
70.93
70.58
70.48
70.38
70.15
69.93
69.68
69.43
69.18
69.07
68.35
67.70
67.12
66.48
65.82
65.22
64.67
64.10
63.52
62.95
62.40
61.93
61.47
61.08
60.73
60.48
60.25
60.02
59.80
59.75
59.70
59.67
59.63
59.60
59.57
59.53
59.48
59.43
59.40
59.37
59.33
59.32
59.32
59.32
59.33
59.35
59.35
59.37
59.37
59.37
59.38
59.38
59.38
59.38
59.38
59.38
59.35
59.33
59.32
59.30
59.27
59.23
59.22
59.22
59.22
59.23
59.23
59.23
59.23
59.22
59.23
59.25
59.25
59.23
59.22
59.20
59.18
59.17
59.18
59.22
59.25
59.28
59.30
59.30
59.30
59.28
59.28
59.28
59.27
59.25
59.22
59.18
59.15
59.12
59.08
59.05
59.02
59.00
58.97
58.95
58.93
58.92
58.90
58.90
58.90
58.90
58.90
58.88
58.88
58.88
58.88
58.88
58.88
58.88
58.88
58.88
58.90
58.90
58.90
58.90
58.90
58.90
58.90
58.88
58.87
58.85
58.83
58.82
58.80
58.80
58.78
58.77
58.75
58.75
58.75
58.77
58.78
58.82
58.85
58.88
58.92
58.97
59.00
59.03
59.07
59.10
59.10
59.10
59.10
59.10
59.10
59.10
59.10
59.10
59.10
59.10
59.12
59.12
59.12
59.12
59.12
59.12
59.12
59.12
59.10
59.08
59.08
59.08
59.08
59.08
59.07
59.07
59.07
59.08
59.12
59.17
59.23
59.33
59.43
59.57
59.67
59.77
59.85
59.92
59.98
60.03
60.05
60.05
60.05
60.05
60.05
60.03
60.02
59.98
59.95
59.90
59.85
59.80
59.75
59.70
59.65
59.58
59.52
59.47
59.42
59.37
59.33
59.30
59.27
59.23
59.20
59.17
59.15
59.12
59.10
59.08
59.07
59.05
59.05
59.03
59.02
59.02
59.00
58.98
58.98
58.98
58.98
58.98
58.98
58.98
58.98
59.00
59.02
59.02
59.00
58.97
58.92
58.83
58.75
58.63
58.53
58.45
58.38
58.33
58.30
58.28
58.30
58.33
58.37
58.42
58.45
58.48
58.50
58.52
58.53
58.55
58.57
58.55
58.55
58.55
58.55
58.55
58.58
58.60
58.60
58.60
58.60
58.60
58.60
58.60
58.60
58.60
58.58
58.58
58.57
58.57
58.57
58.58
58.60
58.65
58.70
58.73
58.78
58.82
58.85
58.88
58.90
58.92
58.92
58.92
58.93
58.93
58.95
58.97
59.00
59.03
59.07
59.10
59.13
59.18
59.25
59.28
59.32
59.35
59.37
59.38
59.40
59.40
59.40
59.38
59.38
59.38
59.40
59.42
59.43
59.45
59.47
59.50
59.52
59.53
59.55
59.57
59.57
59.57
59.58
59.60
59.62
59.63
59.65
59.67
59.68
59.70
59.72
59.73
59.75
59.75
59.75
59.73
59.72
59.68
59.67
59.65
59.62
59.62
59.62
59.62
59.63
59.65
59.68
59.72
59.73
59.75
59.75
59.75
59.73
59.72
59.70
59.68
59.67
59.63
59.60
59.58
59.57
59.55
59.52
59.48
59.45
59.43
59.42
59.40
59.38
59.38
59.38
59.40
59.42
59.43
59.45
59.45
59.45
59.43
59.42
59.40
59.40
59.42
59.43
59.45
59.47
59.48
59.52
59.55
59.58
59.60
59.62
59.63
59.65
59.67
59.68
59.70
59.72
59.75
59.77
59.80
59.87
59.92
59.97
60.02
60.07
60.10
60.13
60.15
60.17
60.17
60.17
60.17
60.15
60.13
60.12
60.10
60.08
60.07
60.05
60.03
60.00
59.98
59.98
59.98
59.98
59.98
59.98
60.00
60.02
60.03
60.05
60.05
60.05
60.05
60.05
60.05
60.05
60.07
60.08
60.10
60.10
60.08
60.07
60.05
60.03
60.02
59.98
59.95
59.90
59.87
59.83
59.78
59.73
59.68
59.63
59.58
59.53
59.47
59.40
59.32
59.22
59.12
59.02
58.92
58.82
58.73
58.65
58.58
58.52
58.47
58.42
58.37
58.33
58.30
58.27
58.23
58.18
58.15
58.12
58.08
58.08
58.08
58.07
58.05
58.03
58.02
58.02
58.00
57.98
57.95
57.93
57.92
57.88
57.87
57.85
57.85
57.85
57.85
57.85
57.85
57.85
57.85
57.85
57.85
57.85
57.85
57.85
57.85
57.87
57.88
57.90
57.93
57.97
58.02
58.07
58.12
58.17
58.22
58.27
58.32
58.37
58.43
58.50
58.55
58.60
58.65
58.70
58.75
58.78
58.80
58.83
58.87
58.90
58.93
58.97
59.00
59.05
59.08
59.12
59.15
59.17
59.17
59.20
59.23
59.27
59.30
59.32
59.33
59.35
59.38
59.40
59.42
59.45
59.47
59.48
59.50
59.52
59.53
59.55
59.57
59.58
59.58
59.60
59.62
59.63
59.65
59.68
59.72
59.77
59.82
59.87
59.92
59.98
60.03
60.10
60.35
60.62
60.92
61.25
61.52
61.80
62.08
62.37
62.67
62.95
63.25
63.55
63.87
64.23
64.68
65.13
65.62
66.10
66.53
66.97
67.37
67.77
68.17
68.55
68.93
69.32
69.67
69.95
70.22
70.52
70.90
71.28
71.68
72.10
72.47
72.85
73.22
73.60
73.93
74.28
74.63
74.97
75.32
75.67
76.05
76.42
76.80
77.17
77.55
77.93
78.33
78.70
79.10
79.47
79.83
80.23
80.65
81.03
81.40
81.72
81.85
81.97
82.00
82.05
82.17
82.27
82.37
82.43
82.53
82.63
82.72
82.80
82.90
82.95
82.98
82.98
82.97
82.93
82.95
82.98
83.05
83.12
83.18
83.25
83.33
83.40
83.48
83.62
83.75
83.85
83.88
83.93
83.97
84.00
84.10
84.18
84.28
84.33
84.42
84.47
84.48
84.53
84.52
84.50
84.45
84.45
84.45
84.48
84.52
84.53
84.50
84.48
84.38
84.28
84.17
83.98
83.78
83.53
83.35
83.18
83.00
82.82
82.68
82.50
82.30
82.13
81.93
81.82
81.67
81.55
81.42
81.28
81.15
81.02
80.83
80.65
80.45
80.27
80.12
79.95
79.78
79.67
79.57
79.43
79.30
79.20
79.10
79.00
78.82
78.65
78.47
78.28
78.08
77.87
77.62
77.40
77.22
77.05
76.93
76.87
76.72
76.57
76.70
76.87
77.05
77.20
77.35
77.47
77.55
77.60
77.67
77.75
77.88
78.02
78.15
78.30
78.43
78.62
78.77
78.92
79.10
79.27
79.45
79.62
79.82
79.95
80.13
80.22
80.35
80.47
80.63
80.77
80.85
80.97
81.08
81.27
81.50
81.72
81.78
81.87
81.97
81.98
82.08
82.18
82.32
82.42
82.55
82.73
83.00
83.27
83.48
83.67
83.85
84.05
84.30
84.50
84.67
84.90
85.10
85.30
85.67
86.03
86.22
86.37
86.53
86.67
86.87
86.98
87.18
87.73
88.30
88.85
89.40
90.12
90.85
91.58
92.33
93.08
93.83
94.60
95.33
96.08
96.82
97.57
98.32
99.10
99.87
100.68
101.45
102.22
102.95
103.72
104.50
105.25
106.00
106.70
107.35
108.02
108.82
109.62
110.40
111.22
111.93
112.70
113.42
114.17
114.88
115.55
116.23
116.88
117.58
118.30
119.03
119.77
120.47
121.18
121.92
122.58
123.25
123.88
124.45
125.00
125.50
126.00
126.47
126.98
127.43
127.97
128.45
128.65
128.87
129.10
129.33
129.38
129.42
129.47
129.52
129.58
129.60
129.60
129.60
129.58
129.65
129.87
130.05
130.38
131.02
131.63
132.40
133.13
133.80
134.47
135.15
135.85
136.55
137.22
137.85
138.53
139.22
139.88
140.57
141.23
141.95
142.77
143.60
144.42
145.25
146.08
146.92
147.83
148.77
149.72
150.67
151.58
152.52
153.45
154.37
155.30
156.23
157.15
158.03
158.88
159.73
160.60
161.45
162.28
163.12
163.97
164.78
165.58
166.33
167.03
167.73
168.48
169.25
170.03
170.83
171.65
172.50
173.38
174.30
175.18
175.98
176.65
177.33
177.87
178.08
178.30
178.40
178.53
178.73
178.88
179.02
179.12
179.18
179.27
179.37
179.42
179.50
179.57
179.58
179.73
179.52
179.20
178.83
178.50
178.15
177.57
176.92
176.20
175.45
174.72
173.97
173.25
172.53
171.85
170.63
169.45
168.28
167.15
166.07
165.02
164.00
162.97
161.95
160.95
159.93
158.92
157.90
156.88
155.90
154.95
154.02
153.07
152.12
151.17
150.22
149.27
148.33
147.38
146.43
145.55
144.67
143.77
142.88
142.00
141.13
140.30
139.43
138.58
137.73
136.93
136.12
135.33
134.57
133.82
133.08
132.33
131.52
130.72
129.95
129.07
128.50
127.93
127.42
126.87
126.35
126.07
125.85
125.63
125.43
125.22
125.03
124.85
124.65
124.43
124.78
125.10
125.42
125.72
126.02
126.32
126.58
126.85
127.12
127.37
127.65
127.93
128.25
128.57
128.90
129.23
129.57
129.90
130.23
130.55
130.85
131.13
131.40
131.65
131.88
132.08
132.28
132.48
132.68
132.88
133.08
133.27
133.47
133.65
133.83
134.02
134.23
134.47
134.73
135.02
135.30
135.60
135.92
136.23
136.53
136.83
137.13
137.42
137.68
137.93
138.18
138.42
138.65
138.88
139.12
139.33
139.53
139.70
139.85
139.95
140.00
140.03
140.05
140.07
140.08
140.10
140.13
140.17
140.18
140.18
140.17
140.12
140.02
139.90
139.75
139.57
139.35
139.10
138.82
138.52
138.20
137.87
137.52
137.17
136.82
136.47
136.10
135.72
135.32
134.90
134.45
134.00
133.52
133.02
132.52
132.02
131.50
130.95
130.37
129.75
129.12
128.45
127.75
127.02
126.28
125.55
124.80
124.07
123.32
122.60
121.87
121.15
120.45
119.75
119.05
118.35
117.67
117.02
116.40
115.82
115.25
114.70
114.15
113.60
113.03
112.48
111.85
111.22
110.60
110.02
109.43
108.88
108.38
107.93
107.48
107.05
106.62
106.22
105.85
105.50
105.17
104.83
104.50
104.23
103.95
103.65
103.32
102.97
102.58
102.08
101.60
101.13
100.70
100.32
99.95
99.60
99.25
98.92
98.58
98.23
97.90
97.58
97.32
97.08
97.00
96.92
96.85
96.80
96.78
96.75
96.72
96.68
96.65
96.62
96.58
96.53
96.47
96.37
96.23
96.08
95.93
95.77
95.62
95.48
95.38
95.28
95.25
95.22
95.18
95.12
95.07
95.00
94.93
94.83
94.73
94.65
94.58
94.52
94.45
94.37
94.28
94.23
94.18
94.10
94.03
94.00
94.00
94.02
94.08
94.28
94.47
94.63
94.72
94.75
94.75
94.72
94.70
94.65
94.60
94.58
94.57
94.55
94.50
94.32
94.02
93.72
93.38
93.03
92.65
92.27
91.85
91.42
90.98
90.57
90.17
89.80
89.32
88.85
88.38
87.98
87.57
87.30
87.02
86.72
86.40
86.08
85.78
85.50
85.23
84.98
84.75
84.55
84.35
84.17
84.02
83.87
83.72
83.55
83.37
83.17
82.95
82.67
82.37
82.05
81.70
81.30
80.92
80.55
80.15
79.73
79.33
78.90
78.53
78.20
77.88
77.57
77.22
76.95
76.67
76.37
76.07
75.78
75.52
75.40
75.18
74.97
74.82
74.77
74.75
74.73
74.75
74.78
74.80
74.80
74.78
74.75
74.83
74.95
75.08
75.18
75.28
75.25
75.22
75.20
75.18
75.13
75.07
75.05
75.07
75.05
74.97
74.83
74.73
74.58
74.37
74.08
73.82
73.53
73.25
73.00
72.97
72.98
73.02
73.22
73.43
73.70
73.98
74.25
74.62
74.97
75.30
75.63
75.95
76.27
76.62
77.00
77.48
77.98
78.55
79.15
79.90
80.65
81.38
82.07
82.87
83.68
84.43
85.08
86.03
87.00
87.92
88.80
89.82
90.27
90.60
90.97
91.38
91.78
92.18
92.58
93.03
93.57
94.08
94.62
95.15
95.70
96.27
96.82
97.27
97.77
98.33
98.68
98.97
99.30
99.68
100.17
100.57
101.03
101.55
102.05
102.37
102.67
102.98
103.12
103.30
103.50
103.67
103.83
103.93
104.05
104.20
104.43
104.65
104.83
105.00
105.12
105.13
105.03
104.90
104.75
104.45
104.15
103.80
103.47
103.10
102.72
102.35
101.98
101.30
100.60
99.93
99.32
98.60
98.47
98.32
98.12
97.92
97.70
97.50
97.28
97.02
96.67
96.32
95.85
95.35
94.87
94.37
93.80
93.33
92.87
92.50
92.33
92.17
91.95
91.70
91.38
91.12
90.80
90.43
90.10
89.77
89.45
89.15
88.87
88.55
88.20
87.87
87.57
87.25
86.97
86.68
86.35
86.05
85.78
85.47
85.18
84.92
84.70
84.50
84.32
84.13
83.95
83.85
83.77
83.68
83.62
83.57
83.53
83.52
83.52
83.52
83.48
83.40
83.28
83.33
83.35
83.32
83.28
83.23
83.20
83.22
83.23
83.25
83.33
83.45
83.55
83.63
83.70
83.72
83.70
83.55
83.42
83.30
83.23
83.23
83.28
83.37
83.45
83.57
83.68
83.78
83.93
84.07
84.32
84.62
84.90
85.17
85.25
85.32
85.35
85.37
85.40
85.45
85.47
85.55
85.65
85.77
85.88
85.98
86.07
86.13
86.23
86.32
86.40
86.48
86.55
86.72
86.88
87.02
87.15
87.27
87.42
87.65
87.97
88.22
88.52
88.80
88.95
89.05
89.18
89.23
89.35
89.43
89.52
89.62
89.73
89.88
90.08
89.87
89.68
89.43
89.28
89.05
88.80
88.52
88.27
88.00
87.80
87.60
87.37
87.12
86.82
86.53
86.13
85.65
85.22
84.83
84.62
84.45
84.27
84.07
83.82
83.45
83.05
82.63
82.17
81.60
81.05
80.53
79.93
79.37
78.73
78.08
77.42
76.75
76.18
75.53
75.02
74.62
74.20
73.87
73.63
73.28
72.85
72.45
72.03
71.60
71.32
71.07
70.77
70.50
70.18
69.90
69.62
69.32
68.98
68.63
68.28
68.33
68.37
68.58
68.68
68.87
69.05
69.22
69.33
69.43
69.48
69.52
69.57
69.65
69.83
69.95
70.07
70.20
70.33
70.43
70.53
70.60
70.70
70.83
71.02
71.32
71.70
72.08
72.52
73.05
73.58
74.10
74.70
75.28
75.90
76.52
77.13
77.73
78.22
78.67
78.95
79.13
79.32
79.45
79.45
79.50
79.55
79.60
79.68
79.82
79.95
80.12
80.30
80.50
80.67
80.83
80.98
81.12
81.23
81.33
81.42
81.52
81.62
81.62
81.68
81.77
81.87
81.98
82.10
82.22
82.32
82.33
82.37
82.38
82.28
82.23
82.20
82.20
82.20
82.20
82.18
82.17
82.17
82.17
82.15
82.13
82.08
82.03
81.98
81.95
81.90
81.87
81.83
81.83
81.85
81.88
81.93
82.02
82.12
82.25
82.40
82.55
82.68
82.80
82.92
83.02
83.12
83.23
83.32
83.42
83.50
83.58
83.65
83.72
83.78
83.88
83.98
84.12
84.25
84.38
84.48
84.60
84.73
84.85
84.95
85.07
85.27
85.48
85.68
85.90
86.13
86.45
86.77
87.08
87.40
87.67
87.90
88.12
88.32
88.50
88.70
88.93
89.20
89.45
89.70
89.97
90.23
90.47
90.67
90.82
90.98
91.12
91.22
91.30
91.35
91.42
91.45
91.43
91.40
91.33
91.27
91.20
91.13
91.12
91.13
91.18
91.27
91.35
91.45
91.52
91.58
91.62
91.63
91.65
91.70
91.75
91.83
91.92
92.05
92.18
92.38
92.57
92.75
92.95
93.13
93.28
93.32
93.33
93.37
93.40
93.43
93.48
93.55
93.63
93.73
93.92
94.13
94.35
94.58
94.83
95.03
95.18
95.17
95.15
95.13
95.08
94.98
94.88
94.82
94.77
94.70
94.62
94.57
94.53
94.53
94.50
94.52
94.57
94.63
94.75
94.83
94.92
94.98
95.02
95.05
95.07
95.05
95.02
94.97
94.92
94.88
94.88
94.90
94.93
94.95
94.97
95.03
95.08
95.17
95.30
95.43
95.58
95.72
95.83
95.97
96.12
96.28
96.45
96.63
96.82
97.02
97.20
97.35
97.50
97.65
97.77
97.82
97.85
97.87
97.87
97.92
97.98
98.15
98.32
98.50
98.67
98.88
99.12
99.33
99.57
99.80
100.07
100.32
100.53
100.73
100.92
101.08
101.23
101.37
101.47
101.60
101.75
101.93
102.12
102.30
102.48
102.67
102.87
103.10
103.33
103.52
103.65
103.77
103.93
104.23
104.57
104.80
105.07
105.27
105.45
105.58
105.72
105.87
106.05
106.28
106.50
106.70
107.07
107.38
107.68
107.95
108.23
108.53
108.80
109.08
109.37
109.68
110.03
110.32
110.57
110.83
111.12
111.43
111.92
112.37
112.88
113.38
113.43
113.48
113.53
113.57
113.53
113.43
113.37
113.37
113.38
113.42
113.48
113.58
113.70
113.83
113.98
114.05
114.18
114.28
114.38
114.47
114.52
114.55
114.48
114.45
114.45
114.47
114.38
114.15
113.88
113.65
113.37
113.15
112.92
112.70
112.53
112.35
112.10
111.78
111.48
111.15
110.63
110.03
109.47
108.92
108.37
107.80
107.23
106.67
106.08
105.55
105.02
104.52
104.07
103.55
103.00
102.50
101.78
101.08
100.33
99.58
99.27
98.83
98.38
97.95
97.55
97.20
96.78
96.30
95.82
95.32
94.78
94.22
93.65
93.07
92.47
91.95
91.37
90.82
90.28
89.78
89.27
88.77
88.28
87.82
87.37
86.95
86.57
86.15
85.93
85.72
85.52
85.27
85.03
84.78
84.48
84.20
83.95
83.68
83.40
83.13
82.87
82.72
82.57
82.42
82.25
82.12
82.02
81.90
81.82
81.70
81.57
81.48
81.43
81.43
81.48
81.50
81.58
81.68
81.78
81.88
81.98
82.17
82.32
82.43
82.55
82.70
82.90
83.10
83.33
83.58
83.85
84.13
84.40
84.67
84.92
85.17
85.42
85.65
85.87
86.07
86.25
86.38
86.60
86.80
87.00
87.17
87.37
87.63
87.68
87.78
87.88
87.98
88.08
88.22
88.33
88.43
88.52
88.60
88.68
88.80
88.92
89.05
89.17
89.28
89.42
89.53
89.65
89.78
89.92
90.05
90.18
90.30
90.37
90.42
90.42
90.37
90.28
90.18
90.10
90.03
90.00
90.02
90.08
90.22
90.38
90.55
90.72
90.88
91.05
91.22
91.38
91.57
91.77
91.98
92.22
92.47
92.72
92.98
93.25
93.55
93.90
94.28
94.67
95.03
95.38
95.73
96.03
96.32
96.60
96.85
97.10
97.35
97.58
97.77
97.95
98.13
98.33
98.57
98.80
99.05
99.33
99.60
99.87
100.13
100.38
100.63
100.87
101.07
101.23
101.42
101.60
101.78
101.98
102.22
102.50
102.83
103.18
103.55
103.92
104.30
104.67
105.02
105.33
105.62
105.87
106.12
106.35
106.57
106.77
106.95
107.12
107.27
107.38
107.48
107.55
107.58
107.60
107.60
107.58
107.55
107.50
107.47
107.43
107.42
107.40
107.40
107.43
107.50
107.58
107.68
107.78
107.90
108.05
108.23
108.42
108.62
108.85
109.07
109.30
109.53
109.77
110.00
110.23
110.47
110.70
110.93
111.18
111.47
111.77
112.07
112.38
112.72
113.07
113.40
113.72
114.02
114.32
114.62
114.92
115.22
115.52
115.83
116.18
116.55
116.93
117.33
117.73
118.18
118.65
119.12
119.62
120.13
120.67
121.22
121.78
122.37
122.97
123.58
124.22
124.85
125.48
126.10
126.72
127.32
127.90
128.47
129.00
129.50
129.97
130.42
130.87
131.30
131.68
132.07
132.45
132.82
133.13
133.45
133.75
134.02
134.27
134.52
134.77
135.02
135.27
135.50
135.72
135.90
136.08
136.23
136.37
136.47
136.55
136.62
136.67
136.70
136.73
136.73
136.72
136.67
136.60
136.50
136.37
136.20
136.02
135.80
135.57
135.28
134.98
134.68
134.37
134.05
133.75
133.43
133.12
132.82
132.50
132.17
131.82
131.47
131.13
130.80
130.48
130.20
129.95
129.70
129.47
129.23
129.02
128.80
128.58
128.35
128.12
127.88
127.65
127.40
127.17
126.93
126.70
126.48
126.27
126.03
125.80
125.55
125.30
125.05
124.80
124.58
124.37
124.18
124.00
123.83
123.68
123.55
123.42
123.28
123.15
123.03
122.93
122.85
122.77
122.70
122.63
122.58
122.55
122.52
122.50
122.50
122.50
122.50
122.50
122.47
122.42
122.37
122.30
122.20
122.12
122.03
121.95
121.87
121.78
121.70
121.62
121.52
121.42
121.33
121.25
121.17
121.08
121.02
120.93
120.85
120.78
120.72
120.63
120.57
120.50
120.43
120.35
120.28
120.18
120.08
119.97
119.87
119.75
119.65
119.55
119.45
119.38
119.33
119.30
119.30
119.30
119.33
119.37
119.47
119.58
119.72
119.87
120.03
120.23
120.45
120.67
120.88
121.13
121.42
121.72
122.03
122.37
122.70
123.05
123.43
123.82
124.22
124.63
125.07
125.52
125.97
126.45
126.93
127.43
127.93
128.43
128.93
129.43
129.92
130.40
130.90
131.40
131.90
132.42
132.97
133.52
134.08
134.67
135.27
135.87
136.47
137.10
137.72
138.38
139.07
139.78
140.50
141.25
141.98
142.73
143.47
144.15
144.80
145.43
146.03
146.60
147.13
147.67
148.13
148.58
149.02
149.42
149.80
150.15
150.48
150.83
151.18
151.50
151.80
152.08
152.37
152.63
152.92
153.18
153.45
153.72
153.97
154.22
154.47
154.72
154.97
155.20
155.45
155.68
155.92
156.15
156.38
156.60
156.82
157.03
157.23
157.43
157.62
157.80
157.97
158.13
158.27
158.40
158.52
158.63
158.73
158.82
158.90
158.97
159.05
159.12
159.18
159.25
159.32
159.38
159.43
159.50
159.57
159.63
159.68
159.75
159.80
159.85
159.92
160.00
160.08
160.17
160.25
160.35
160.45
160.53
160.60
160.68
160.77
160.85
160.90
160.95
160.98
161.00
161.00
160.98
160.95
160.90
160.83
160.75
160.65
160.55
160.43
160.30
160.15
159.97
159.77
159.57
159.33
159.10
158.85
158.60
158.33
158.05
157.75
157.43
157.12
156.78
156.43
156.03
155.62
155.20
154.78
154.37
153.92
153.45
152.97
152.47
151.97
151.45
150.95
150.45
149.97
149.50
149.05
148.63
148.28
147.93
147.58
147.22
146.85
146.47
146.07
145.63
145.20
144.77
144.35
143.92
143.47
143.00
142.53
142.05
141.60
141.15
140.72
140.33
139.97
139.60
139.25
138.78
138.32
137.75
137.18
136.63
136.10
135.57
135.05
134.53
134.05
133.55
133.05
132.53
132.02
131.50
130.98
130.47
129.97
129.50
129.08
128.73
128.45
128.17
127.88
127.58
127.27
126.92
126.55
126.17
125.77
125.37
124.98
124.62
124.23
123.85
123.48
123.08
122.62
122.15
121.68
121.22
120.75
120.30
119.88
119.52
119.17
118.82
118.47
118.12
117.77
117.42
117.07
116.72
116.32
115.92
115.47
114.97
114.43
113.90
113.38
113.00
112.63
112.40
112.17
112.00
111.82
111.70
111.55
111.37
111.15
110.77
110.42
110.12
109.83
109.53
109.25
108.98
108.72
108.43
108.13
107.85
107.53
107.23
107.02
106.80
106.62
106.48
106.40
106.33
106.28
106.23
106.17
106.08
105.98
105.75
105.50
105.25
105.02
104.78
104.52
104.27
104.00
103.75
103.48
103.20
102.90
102.62
102.35
102.08
101.83
101.60
101.37
101.13
100.90
100.67
100.45
100.25
100.03
99.88
99.72
99.50
99.28
99.02
98.75
98.42
98.12
97.85
97.58
97.38
97.22
97.23
97.22
97.17
97.12
97.10
97.07
97.03
96.98
96.92
96.82
96.67
96.52
96.35
96.10
95.88
95.68
95.50
95.27
95.05
94.85
94.65
94.50
94.37
94.27
94.27
94.20
94.15
94.08
94.13
94.20
94.25
94.33
94.43
94.55
94.67
94.80
94.93
95.05
95.17
95.30
95.43
95.58
95.75
95.95
96.15
96.37
96.58
96.87
97.10
97.33
97.60
97.87
98.15
98.42
98.67
98.90
99.03
99.20
99.33
99.47
99.62
99.78
99.95
100.12
100.28
100.47
100.65
100.85
101.07
101.30
101.57
101.85
102.13
102.43
102.72
103.00
103.27
103.57
103.85
104.12
104.38
104.58
104.77
104.93
105.12
105.37
105.60
105.85
106.00
106.15
106.30
106.42
106.50
106.55
106.60
106.62
106.63
106.67
106.70
106.73
106.77
106.80
106.83
106.83
106.85
106.83
106.82
106.77
106.70
106.62
106.52
106.42
106.32
106.23
106.15
106.05
105.97
105.88
105.82
105.73
105.63
105.55
105.45
105.35
105.23
105.12
105.00
104.87
104.75
104.63
104.53
104.43
104.33
104.22
104.12
104.02
103.93
103.85
103.78
103.72
103.75
103.80
103.85
103.90
103.93
103.97
103.98
104.00
103.98
103.98
103.98
103.98
104.00
104.05
104.08
104.13
104.20
104.25
104.30
104.32
104.33
104.30
104.33
104.38
104.43
104.50
104.57
104.65
104.67
104.70
104.78
104.88
104.98
105.10
105.25
105.42
105.60
105.78
105.93
106.08
106.23
106.32
106.42
106.57
106.75
106.90
107.05
107.22
107.38
107.58
107.72
107.82
107.92
108.02
108.10
108.28
108.25
108.22
108.15
108.08
107.90
107.72
107.53
107.35
107.18
107.05
106.93
106.83
106.75
106.65
106.53
106.42
106.28
106.13
106.02
105.92
105.82
105.73
105.67
105.63
105.60
105.60
105.52
105.43
105.35
105.28
105.20
105.12
105.10
105.08
105.10
105.08
105.05
105.00
104.97
104.93
104.87
104.73
104.62
104.52
104.38
104.20
104.03
103.82
103.60
103.45
103.33
103.23
103.13
103.00
102.90
102.83
102.77
102.68
102.60
102.40
102.42
102.45
102.52
102.58
102.67
102.72
102.75
102.77
102.77
102.75
102.73
102.72
102.70
102.68
102.68
102.70
102.72
102.72
102.70
102.68
102.63
102.58
102.52
102.43
102.35
102.27
102.20
102.12
102.02
101.92
101.83
101.77
101.75
101.73
101.67
101.62
101.58
101.57
101.52
101.43
101.37
101.35
101.33
101.32
101.35
101.48
101.62
101.78
101.93
102.05
102.13
102.18
102.20
102.18
102.12
102.00
101.87
101.73
101.62
101.48
101.28
101.08
100.92
100.77
100.62
100.50
100.38
100.27
100.12
99.95
99.80
99.60
99.40
99.20
99.00
98.80
98.60
98.43
98.30
98.17
98.05
97.92
97.80
97.68
97.62
97.57
97.52
97.50
97.48
97.45
97.33
97.20
97.00
96.80
96.55
96.30
96.03
95.72
95.40
95.10
94.80
94.50
94.18
93.85
93.50
93.13
92.75
92.32
91.87
91.42
90.95
90.52
90.08
89.68
89.33
89.02
88.73
88.47
88.18
87.92
87.68
87.43
87.13
86.82
86.50
86.18
85.87
85.55
85.28
85.00
84.70
84.42
84.13
83.85
83.55
83.25
82.95
82.63
82.30
81.95
81.62
81.28
80.95
80.63
80.27
79.92
79.57
79.20
78.85
78.52
78.28
78.05
77.88
77.70
77.57
77.45
77.38
77.37
77.38
77.43
77.53
77.63
77.78
77.95
78.12
78.30
78.47
78.65
78.83
79.00
79.17
79.30
79.42
79.52
79.60
79.67
79.70
79.73
79.72
79.72
79.73
79.78
79.85
79.92
80.02
80.13
80.28
80.45
80.62
80.82
81.02
81.23
81.42
81.65
81.92
82.20
82.48
82.78
83.08
83.38
83.72
84.07
84.40
84.72
85.03
85.33
85.65
85.97
86.28
86.62
86.95
87.28
87.60
87.93
88.22
88.48
88.72
88.92
89.07
89.18
89.23
89.28
89.28
89.28
89.27
89.25
89.25
89.25
89.28
89.33
89.42
89.52
89.67
89.87
90.08
90.33
90.60
90.87
91.17
91.35
91.55
91.73
91.92
92.15
92.42
92.63
92.85
93.08
93.32
93.52
93.70
93.85
94.03
94.15
94.25
94.28
94.33
94.38
94.42
94.45
94.45
94.45
94.47
94.48
94.53
94.52
94.48
94.42
94.35
94.27
94.18
94.07
93.92
93.77
93.63
93.52
93.40
93.30
93.30
93.30
93.30
93.32
93.37
93.38
93.40
93.45
93.52
93.62
93.73
93.87
94.00
94.12
94.20
94.23
94.25
94.25
94.25
94.22
94.15
94.17
94.17
94.13
94.07
93.93
93.78
93.52
93.23
92.95
92.70
92.50
92.33
92.22
92.10
92.00
91.88
91.77
91.65
91.53
91.43
91.35
91.27
91.18
91.13
91.12
91.10
91.17
91.25
91.38
91.53
91.70
91.87
92.05
92.30
92.53
92.73
92.88
93.07
93.22
93.23
93.35
93.57
93.32
93.05
92.80
92.57
92.30
92.02
91.70
91.35
91.00
90.65
90.32
90.03
89.80
89.60
89.42
89.23
89.10
89.02
88.95
88.90
88.87
88.87
88.90
88.90
89.05
89.20
89.33
89.42
89.45
89.53
89.60
89.68
89.77
89.85
90.03
90.28
90.48
90.73
90.98
91.27
91.52
91.67
91.82
91.90
92.03
92.35
92.58
92.48
92.35
91.93
91.53
91.10
90.68
90.32
90.00
89.67
89.38
89.17
88.88
88.53
88.65
88.77
88.88
88.97
89.03
89.07
89.08
89.10
89.10
89.08
89.08
89.05
88.98
88.88
88.75
88.60
88.42
88.22
88.02
87.80
87.60
87.38
87.17
86.97
86.80
86.67
86.57
86.52
86.50
86.43
86.37
86.30
86.25
86.22
86.13
85.95
85.82
85.62
85.40
85.08
84.77
84.48
84.17
83.72
83.20
82.52
81.92
81.65
81.40
81.38
81.35
81.38
81.43
81.50
81.57
81.62
81.67
81.65
81.60
81.57
81.52
81.47
81.42
81.38
81.38
81.52
81.63
81.73
81.80
81.87
81.93
81.93
81.93
81.90
81.93
82.02
82.13
82.25
82.37
82.47
82.53
82.55
82.53
82.48
82.42
82.30
82.17
81.98
81.78
81.55
81.28
81.02
80.75
80.48
80.23
80.03
79.82
79.67
79.53
79.45
79.40
79.32
79.25
79.35
79.43
79.47
79.45
79.40
79.35
79.33
79.33
79.23
79.12
79.00
78.92
78.87
78.82
78.82
78.87
78.88
78.95
79.00
79.05
79.10
79.13
79.07
79.18
79.28
79.38
79.38
79.38
79.45
79.62
79.82
79.77
79.70
79.62
79.57
79.53
79.53
79.53
79.58
79.68
79.77
79.75
79.77
79.78
79.80
79.82
79.85
79.90
79.93
80.02
80.10
80.10
80.07
80.05
79.98
79.93
79.85
79.73
79.52
79.53
79.55
79.53
79.50
79.48
79.47
79.48
79.47
79.43
79.42
79.40
79.38
79.32
79.23
79.15
79.10
79.00
78.90
78.78
78.67
78.57
78.47
78.35
78.25
78.05
77.90
77.73
77.68
77.62
77.53
77.40
77.30
77.42
77.52
77.63
77.73
77.80
77.82
77.85
77.88
77.88
77.92
78.03
78.15
78.25
78.37
78.48
78.60
78.73
78.87
78.95
79.05
79.25
79.50
79.73
79.95
80.13
80.33
80.52
80.82
80.85
80.87
80.93
81.03
81.17
81.33
81.50
81.70
81.93
82.17
82.42
82.63
82.83
83.02
83.17
83.27
83.37
83.47
83.53
83.62
83.70
83.80
83.92
84.00
84.03
84.03
84.08
84.10
84.08
84.07
83.98
83.88
83.75
83.62
83.45
83.28
83.15
83.03
82.92
82.80
82.70
82.58
82.48
82.40
82.33
82.28
82.25
82.22
82.17
82.10
82.00
81.88
81.73
81.55
81.38
81.23
81.10
81.00
80.95
80.93
80.95
80.98
81.05
81.13
81.23
81.33
81.43
81.53
81.67
81.77
81.87
81.98
82.07
82.13
82.27
82.43
82.63
82.75
82.92
82.90
82.90
82.93
82.98
83.08
83.20
83.35
83.52
83.73
84.02
84.30
84.60
84.93
85.25
85.57
85.88
86.23
86.55
86.92
87.28
87.62
87.90
88.20
88.52
88.85
89.18
89.38
89.55
89.73
89.90
90.07
90.22
90.35
90.48
90.60
90.72
90.85
90.97
91.07
91.12
91.15
91.13
91.10
91.00
90.85
90.65
90.42
90.15
89.87
89.50
89.18
88.85
88.55
88.35
88.20
88.03
87.88
87.73
87.68
87.60
87.70
87.80
87.87
87.93
87.97
87.98
88.00
88.00
87.97
87.88
87.83
87.77
87.67
87.60
87.53
87.48
87.40
87.35
87.27
87.20
87.17
87.17
87.17
87.13
87.07
87.00
87.08
87.20
87.32
87.48
87.67
87.90
88.13
88.37
88.60
88.82
89.00
89.18
89.37
89.58
89.80
90.05
90.32
90.57
90.82
91.03
91.25
91.45
91.67
91.92
92.17
92.42
92.70
93.02
93.08
93.12
93.08
93.02
92.92
92.80
92.67
92.53
92.42
92.30
92.22
92.13
92.03
91.78
91.55
91.33
91.12
90.93
90.77
90.75
90.75
90.73
90.73
90.72
90.70
90.67
90.62
90.55
90.45
90.33
90.17
89.97
89.73
89.48
89.20
88.90
88.60
88.28
88.00
87.73
87.48
87.25
87.03
86.85
86.68
86.52
86.37
86.23
86.10
86.03
86.00
86.00
86.00
86.02
86.05
86.03
85.98
85.90
85.73
85.48
85.45
85.43
85.47
85.52
85.57
85.63
85.72
85.78
85.83
85.87
85.87
85.85
85.82
85.92
85.97
85.98
85.97
85.92
85.83
85.60
85.35
85.12
84.87
84.62
84.37
84.12
83.88
83.67
83.47
83.28
83.15
83.07
83.00
82.97
82.98
83.02
83.07
83.10
83.10
83.05
82.95
82.83
82.67
82.47
82.25
82.03
81.82
81.57
81.32
81.03
80.73
80.45
80.12
79.75
79.38
79.08
78.77
78.40
78.53
78.67
78.82
78.97
79.10
79.22
79.40
79.57
79.70
79.87
79.97
80.12
80.25
80.45
80.18
79.95
79.75
79.55
79.42
79.32
79.25
79.18
79.10
79.00
78.90
78.72
78.58
78.48
78.42
78.60
78.78
78.95
79.08
79.17
79.23
79.28
79.30
79.30
79.28
79.28
79.30
79.32
79.33
79.30
79.28
79.25
79.22
79.18
79.05
78.90
78.73
78.57
78.42
78.20
78.18
78.17
78.12
78.22
78.38
78.52
78.22
77.93
77.58
77.23
76.92
76.67
76.32
76.05
75.82
75.48
75.18
74.82
74.52
74.13
74.20
74.28
74.42
74.63
74.78
74.93
75.07
75.22
75.40
75.62
75.83
76.12
76.35
76.55
76.73
76.68
76.65
76.65
76.67
76.72
76.77
76.80
76.83
76.90
77.00
77.12
77.23
77.42
77.63
77.87
78.08
78.33
78.57
78.80
79.13
79.50
79.90
80.32
80.73
81.22
81.60
82.02
82.45
82.72
82.93
83.38
83.77
84.13
84.53
84.92
85.13
85.30
85.53
85.70
85.87
86.10
86.33
86.57
86.75
86.95
87.27
87.53
87.73
87.87
88.02
88.15
88.18
88.22
88.23
88.23
88.23
88.23
88.22
88.18
88.13
88.07
87.98
87.88
87.80
87.70
87.62
87.55
87.50
87.42
87.33
87.22
87.12
87.00
86.90
86.83
86.80
86.75
86.72
86.68
86.65
86.60
86.50
86.40
86.32
86.23
86.10
86.00
85.93
85.90
85.90
85.78
85.68
85.57
85.48
85.45
85.52
85.57
85.62
85.67
85.73
85.82
85.92
86.02
86.10
86.23
86.30
86.38
86.52
86.67
86.82
86.93
87.13
87.30
87.43
87.45
87.50
87.57
87.68
87.83
87.98
88.15
88.33
88.52
88.67
88.78
88.88
88.95
89.00
89.05
89.07
89.15
89.20
89.25
89.30
89.35
89.42
89.52
89.63
89.78
89.95
90.15
90.38
90.63
90.87
91.03
91.18
91.25
91.28
91.28
91.25
91.23
91.22
91.23
91.23
91.18
91.15
91.20
91.18
91.15
91.07
90.95
90.85
90.77
90.68
90.45
90.22
89.97
89.68
89.38
89.07
88.82
88.57
88.30
88.08
87.98
87.82
87.65
87.72
87.85
88.00
88.18
88.35
88.57
88.83
89.13
89.43
89.73
90.05
90.35
90.67
90.90
91.12
91.37
91.55
91.63
91.65
91.65
91.62
91.53
91.45
91.33
91.20
91.05
90.92
90.83
90.78
90.77
90.72
90.72
90.73
90.75
90.80
90.87
90.95
91.05
91.22
91.38
91.52
91.68
91.87
92.10
92.25
92.43
92.60
92.78
92.95
93.13
93.32
93.37
93.48
93.60
93.75
93.95
94.13
94.35
94.60
94.90
94.95
94.93
94.90
94.83
94.77
94.65
94.47
94.30
94.13
94.00
93.87
93.78
93.70
93.65
93.63
93.55
93.50
93.52
93.55
93.55
93.57
93.62
93.67
93.75
93.88
94.05
94.22
94.43
94.68
94.97
95.32
95.63
95.97
96.30
96.62
96.90
97.17
97.42
97.62
97.73
97.92
98.08
98.23
98.33
98.52
98.65
98.82
99.10
99.38
99.67
99.97
100.42
100.82
101.18
101.53
101.88
102.23
102.55
102.90
103.22
103.55
103.87
104.17
104.40
104.73
105.10
105.45
105.75
106.02
106.13
106.23
106.28
106.20
106.13
106.08
106.07
106.08
106.15
106.20
106.28
106.38
106.60
106.82
107.03
107.22
107.35
107.45
107.52
107.53
107.52
107.47
107.40
107.32
107.22
107.13
107.05
106.97
106.88
106.78
106.68
106.58
106.43
106.30
106.20
106.12
106.05
106.03
106.00
105.98
105.95
105.88
105.87
105.83
105.78
105.73
105.67
105.43
105.17
104.88
104.58
104.27
103.90
103.53
103.20
102.77
102.30
101.88
101.50
101.17
100.98
100.78
100.62
100.55
100.45
100.33
100.25
100.18
100.08
100.05
100.00
99.83
99.50
99.15
98.83
98.52
98.20
97.93
97.78
97.65
97.57
97.50
97.45
97.43
97.45
97.43
97.42
97.40
97.37
97.35
97.33
97.33
97.37
97.43
97.48
97.53
97.60
97.62
97.63
97.67
97.72
97.75
97.72
97.70
97.67
97.63
97.47
97.50
97.58
97.68
97.78
97.87
97.98
98.10
98.22
98.30
98.37
98.42
98.45
98.48
98.53
98.60
98.67
98.75
98.87
99.00
99.08
99.15
99.25
99.37
99.48
99.70
99.95
100.20
100.40
100.60
100.80
100.97
101.03
101.10
101.13
101.08
101.00
100.88
100.72
100.57
100.42
100.27
100.13
100.02
99.93
99.87
99.82
99.75
99.67
99.57
99.42
99.25
99.07
98.85
98.62
98.43
98.27
98.13
98.03
97.95
98.02
98.07
98.12
98.13
98.17
98.20
98.23
98.27
98.30
98.33
98.37
98.40
98.45
98.48
98.50
98.53
98.57
98.65
98.73
98.83
98.95
99.05
99.10
99.12
99.12
99.10
99.08
99.05
99.05
99.05
99.07
99.08
99.07
99.05
99.03
99.08
99.15
99.23
99.32
99.40
99.50
99.63
99.77
99.90
100.02
100.12
100.20
100.25
100.32
100.33
100.38
100.43
100.52
100.62
100.77
100.88
101.00
101.10
101.20
101.27
101.30
101.32
101.33
101.37
101.38
101.40
101.43
101.48
101.53
101.62
101.70
101.80
101.88
101.97
102.07
102.17
102.27
102.33
102.42
102.50
102.58
102.68
102.82
102.93
103.07
103.22
103.37
103.53
103.67
103.78
103.90
104.02
104.15
104.28
104.42
104.55
104.70
104.83
104.98
105.10
105.18
105.22
105.22
105.20
105.18
105.17
105.17
105.20
105.23
105.32
105.40
105.45
105.47
105.45
105.37
105.30
105.22
105.12
105.02
104.93
104.88
104.83
104.77
104.68
104.60
104.53
104.48
104.45
104.42
104.37
104.38
104.38
104.37
104.32
104.20
104.07
103.92
103.77
103.62
103.48
103.37
103.15
102.93
102.73
102.52
102.38
102.25
102.10
101.97
101.87
101.78
101.62
101.47
101.32
101.22
101.10
100.93
100.72
100.45
100.17
99.90
99.67
99.48
99.32
99.15
98.90
98.67
98.43
98.20
97.97
97.72
97.50
97.28
97.05
96.82
96.60
96.42
96.23
96.10
96.00
95.93
95.90
95.88
95.85
95.82
95.80
95.73
95.60
95.45
95.28
95.05
94.83
94.68
94.60
94.58
94.58
94.62
94.62
94.58
94.52
94.43
94.45
94.48
94.55
94.67
94.70
94.77
94.85
94.95
95.07
95.33
95.68
96.02
96.28
96.50
96.72
96.97
97.20
97.47
97.75
98.03
98.23
98.42
98.48
98.58
98.77
98.93
99.05
99.15
99.22
99.20
99.23
99.28
99.37
99.48
99.58
99.70
99.85
99.93
100.00
100.03
100.02
100.00
99.93
99.85
99.72
99.67
99.63
99.62
99.60
99.60
99.50
99.38
99.23
98.95
98.68
98.37
98.10
97.85
97.60
97.35
97.18
97.00
96.78
96.45
96.18
95.88
95.60
95.27
95.05
94.65
94.25
93.85
93.52
93.20
92.93
92.67
92.47
92.28
92.10
91.92
91.80
91.68
91.65
91.58
91.52
91.45
91.43
91.42
91.43
91.53
91.58
91.68
91.77
91.82
91.85
91.85
91.87
91.92
91.95
91.90
91.87
91.80
91.82
91.85
91.87
91.82
91.88
91.97
92.02
92.07
92.22
92.33
92.45
92.62
92.75
92.95
93.12
93.27
93.40
93.52
93.45
93.38
93.37
93.43
93.43
93.45
93.47
93.52
93.42
93.35
93.32
93.30
93.30
93.32
93.32
93.33
93.37
93.38
93.40
93.42
93.42
93.40
93.35
93.28
93.18
93.07
92.93
92.83
92.73
92.65
92.58
92.47
92.38
92.32
92.25
92.17
92.03
91.90
91.77
91.70
91.63
91.57
91.50
91.42
91.38
91.33
91.22
91.08
90.98
90.90
90.85
90.82
90.77
90.77
90.90
90.98
91.07
91.15
91.22
91.32
91.52
91.75
91.98
92.22
92.45
92.68
92.90
92.98
93.05
93.10
93.10
93.07
93.13
93.22
93.27
93.28
93.27
93.20
93.17
93.15
93.15
93.12
93.13
93.17
93.23
93.30
93.37
93.40
93.43
93.48
93.52
93.58
93.63
93.68
93.70
93.75
93.82
93.98
94.15
94.30
94.48
94.67
94.83
95.03
95.20
95.43
95.68
95.98
96.32
96.65
96.97
97.28
97.62
97.93
98.10
98.23
98.35
98.47
98.60
98.62
98.65
98.67
98.65
98.65
98.62
98.50
98.37
98.37
98.38
98.42
98.27
98.13
97.88
97.58
97.27
96.87
96.45
96.12
95.75
95.38
95.00
94.68
94.38
94.12
93.88
93.67
93.47
93.32
93.20
93.07
92.97
92.83
92.73
92.67
92.68
92.72
92.78
92.75
92.73
92.75
92.73
92.77
92.78
92.78
92.82
92.78
92.70
92.55
92.35
92.12
91.87
91.53
91.25
90.98
90.77
90.60
90.47
90.32
90.13
90.02
89.87
89.70
89.48
89.25
89.03
88.87
88.78
88.67
88.52
88.33
88.35
88.38
88.47
88.57
88.73
89.02
89.28
89.58
89.85
90.08
90.30
90.58
90.68
90.75
90.82
90.85
90.88
90.88
90.87
90.82
90.70
90.55
90.35
90.15
89.92
89.63
89.35
89.05
88.75
88.43
88.13
87.80
87.40
86.98
86.55
86.15
85.73
85.37
84.93
84.48
84.07
83.72
83.27
82.83
82.42
81.92
81.53
81.15
80.83
80.55
80.28
80.02
79.88
79.70
79.52
79.35
79.12
78.88
78.68
78.52
78.37
78.23
78.05
77.82
77.52
77.18
76.87
76.55
76.28
76.02
75.78
75.47
75.32
75.18
75.02
74.88
74.78
74.72
74.63
74.60
74.65
74.73
74.87
75.00
75.15
75.33
75.45
75.55
75.58
75.60
75.55
75.50
75.50
75.52
75.53
75.55
75.60
75.63
75.78
75.95
76.08
76.23
76.42
76.60
76.68
76.83
76.85
76.88
76.90
76.93
76.95
76.97
76.83
76.80
76.78
76.75
76.70
76.70
76.67
76.63
76.57
76.48
76.38
76.32
76.28
76.30
76.40
76.48
76.60
76.73
76.88
77.17
77.43
77.68
77.92
78.13
78.30
78.43
78.55
78.65
78.72
78.80
78.85
78.82
78.80
78.78
78.78
78.80
78.85
78.92
79.03
79.17
79.32
79.45
79.62
79.78
79.95
80.08
80.10
80.10
80.08
80.08
80.08
80.07
80.08
80.12
80.15
80.17
80.15
80.10
80.02
79.97
79.97
79.92
79.83
79.85
79.88
79.88
79.87
79.83
79.80
79.63
79.50
79.32
79.17
78.97
78.68
78.35
77.93
77.43
76.98
76.40
75.83
75.25
74.68
74.13
73.62
73.15
72.72
72.27
71.83
71.42
71.03
70.75
70.43
70.08
69.73
69.37
69.08
68.72
68.38
68.03
67.70
67.38
67.13
66.90
66.73
66.60
66.60
66.65
66.73
66.82
66.97
67.12
67.28
67.47
67.70
67.95
68.23
68.52
68.83
69.12
69.42
69.70
70.03
70.28
70.58
70.90
71.23
71.58
71.93
72.38
72.80
73.25
73.65
74.05
74.47
74.97
75.40
75.93
76.40
76.77
77.15
77.53
78.05
78.53
79.10
79.65
80.17
80.70
81.13
81.62
82.10
82.48
82.88
83.37
83.78
84.22
84.45
84.75
84.98
85.07
85.15
85.20
85.13
85.02
84.83
84.65
84.45
84.23
83.97
83.72
83.42
83.13
82.87
82.58
82.20
81.82
81.42
81.00
80.55
80.07
79.57
79.08
78.65
78.22
77.73
77.25
76.80
76.33
75.93
75.60
75.42
75.27
74.87
74.50
74.15
73.82
73.68
73.50
73.30
73.38
73.57
73.77
73.80
73.87
73.80
73.68
73.52
73.45
73.47
73.40
73.32
73.42
73.47
73.43
73.48
73.50
73.65
73.80
73.98
74.30
74.62
74.95
75.30
75.68
76.07
76.47
76.88
77.30
77.75
78.17
78.62
79.02
79.38
79.70
80.03
80.33
80.60
80.90
81.22
81.45
81.72
81.98
82.18
82.37
82.55
82.73
83.08
83.45
83.77
83.98
84.03
84.08
84.40
84.70
84.93
85.07
85.12
85.20
85.30
85.10
84.85
84.58
84.33
84.08
83.87
83.65
83.48
83.23
82.88
82.55
82.23
81.77
81.32
80.85
80.30
79.77
79.22
78.68
78.15
77.53
76.87
76.22
75.57
74.92
74.25
73.75
73.28
72.63
71.98
71.32
70.62
69.95
69.30
68.67
68.50
68.40
68.37
68.33
68.32
68.42
68.45
68.45
68.57
68.65
68.72
68.75
68.60
68.37
68.12
67.97
67.78
67.57
67.37
67.15
67.03
66.92
66.80
66.47
66.12
65.90
65.60
65.53
65.43
65.33
65.15
65.05
64.90
64.80
64.85
64.83
64.82
64.80
64.82
64.83
64.90
65.03
65.20
65.40
65.58
65.88
66.25
66.58
66.93
67.27
67.60
67.75
67.82
68.13
68.48
68.83
69.17
69.48
69.80
70.13
70.03
69.87
69.73
69.60
69.48
69.38
69.32
69.27
69.12
69.00
68.90
68.82
68.75
68.73
68.78
68.78
68.85
68.95
69.05
69.18
69.25
69.30
69.37
69.65
69.95
70.23
70.50
70.52
70.67
70.80
71.03
71.20
71.47
71.68
71.87
72.10
72.30
72.53
72.77
73.05
73.35
73.63
73.92
74.17
74.40
74.60
74.77
74.95
75.12
75.25
75.40
75.57
75.75
75.87
75.98
76.13
76.25
76.35
76.43
76.33
76.20
76.17
76.07
75.93
75.83
75.67
75.53
75.47
75.50
75.55
75.67
75.78
75.90
76.03
76.12
76.22
76.33
76.47
76.58
76.67
76.78
76.92
76.92
76.97
77.00
77.03
77.13
77.22
77.25
77.30
77.33
77.37
77.35
77.30
77.22
77.13
77.05
76.97
76.88
76.80
76.72
76.62
76.53
76.48
76.50
76.55
76.63
76.72
76.87
77.12
77.33
77.52
77.68
77.82
77.88
77.83
77.87
77.93
78.00
78.27
78.60
78.87
79.15
79.45
79.70
80.02
80.28
80.48
80.57
80.65
80.67
80.68
80.72
80.75
80.80
80.83
80.90
80.95
81.00
81.05
81.10
81.10
81.20
81.23
81.35
81.40
81.40
81.50
81.57
81.62
81.65
81.67
81.65
81.63
81.63
81.63
81.65
81.65
81.67
81.67
81.67
81.63
81.55
81.38
81.18
80.98
80.75
80.52
80.25
79.97
79.73
79.53
79.35
79.20
79.10
79.15
79.17
79.18
79.27
79.37
79.45
79.57
79.68
79.75
79.80
79.82
79.85
79.90
79.85
79.80
79.78
79.77
79.75
79.75
79.87
79.93
80.02
80.07
80.10
80.15
80.37
80.63
80.90
81.17
81.37
81.58
81.85
82.07
82.27
82.48
82.70
82.93
83.22
83.50
83.87
84.18
84.50
84.85
85.15
85.57
85.98
86.40
86.75
87.25
87.80
88.13
88.43
88.77
89.08
89.37
89.65
89.90
90.12
90.33
90.55
90.73
90.92
91.08
91.20
91.28
91.38
91.50
91.52
91.57
91.65
91.75
91.85
91.92
92.00
92.08
92.10
92.10
92.12
92.08
91.93
91.83
91.63
91.43
91.28
91.13
90.68
90.30
89.92
89.55
89.20
88.90
88.58
88.28
88.00
87.72
87.43
87.15
86.82
86.48
86.02
85.60
85.13
84.57
84.03
83.33
82.67
82.00
81.42
80.78
80.08
79.58
79.17
78.77
78.40
78.03
77.68
77.33
77.03
76.80
76.47
76.13
75.87
75.57
75.27
75.07
74.78
74.52
74.33
74.17
74.02
73.88
73.78
73.73
73.78
73.87
74.00
74.15
74.28
74.45
74.58
74.70
74.82
74.95
75.08
75.23
75.53
75.62
75.73
75.88
75.98
76.08
76.18
76.23
76.23
76.23
76.27
76.27
76.28
76.30
76.33
76.38
76.47
76.65
76.85
77.10
77.37
77.67
77.97
78.18
78.42
78.65
78.88
79.10
79.28
79.42
79.58
79.78
80.02
80.18
80.47
80.77
81.02
81.32
81.62
81.82
82.10
82.30
82.48
82.63
82.72
82.90
83.07
83.22
83.33
83.43
83.55
83.58
83.60
83.72
83.97
84.20
84.47
84.78
84.90
85.02
85.12
85.38
85.70
86.00
86.37
86.62
86.87
87.15
87.48
87.82
88.12
88.53
88.95
89.40
89.90
90.37
90.83
91.23
91.70
92.07
92.38
92.75
93.18
93.67
94.13
94.68
94.92
95.13
95.33
95.47
95.57
95.55
95.50
95.45
95.35
95.20
95.03
94.88
94.75
94.65
94.52
94.40
94.28
94.18
94.03
93.82
93.57
93.27
93.00
92.72
92.40
92.15
91.88
91.52
91.02
90.52
90.00
89.43
89.03
88.58
88.13
87.70
87.22
86.72
86.18
85.75
85.28
84.87
84.48
84.10
83.73
83.28
82.88
82.47
82.03
81.62
81.18
80.77
80.25
79.85
79.45
78.98
78.43
77.83
77.23
76.55
76.13
75.68
75.23
74.93
74.57
74.33
74.12
73.90
73.70
73.52
73.35
73.13
72.98
72.80
72.63
72.50
72.42
72.38
72.45
72.48
72.52
72.58
72.62
72.67
72.68
72.70
72.73
72.80
72.92
73.08
73.27
73.45
73.58
73.77
73.93
74.08
74.22
74.33
74.45
74.57
74.80
75.02
75.18
75.35
75.52
75.63
75.78
75.95
76.10
76.27
76.43
76.65
76.87
77.05
77.23
77.43
77.67
77.97
78.20
78.43
78.70
79.02
79.32
79.57
79.83
80.03
80.22
80.43
80.70
80.95
81.18
81.45
81.67
81.90
82.13
82.28
82.38
82.50
82.62
82.70
82.78
82.87
82.97
83.05
83.20
83.27
83.35
83.42
83.43
83.42
83.38
83.32
83.30
83.27
83.25
83.27
83.30
83.35
83.42
83.48
83.45
83.40
83.37
83.33
83.27
83.25
83.20
83.15
83.12
83.07
83.00
82.88
82.73
82.60
82.50
82.38
82.23
82.05
81.92
81.78
81.63
81.45
81.27
81.08
80.92
80.78
80.68
80.57
80.40
80.25
80.12
80.00
79.85
79.68
79.48
79.32
79.17
78.97
78.75
78.53
78.35
78.18
78.02
77.90
77.77
77.75
77.75
77.75
77.80
77.90
78.02
78.15
78.27
78.33
78.37
78.30
78.20
78.10
77.98
77.87
77.77
77.65
77.53
77.42
77.35
77.28
77.20
77.13
77.10
77.08
77.13
77.22
77.33
77.43
77.48
77.53
77.62
77.72
77.87
78.03
78.22
78.43
78.67
78.92
79.15
79.37
79.55
79.70
79.88
80.07
80.23
80.38
80.53
80.73
80.93
81.12
81.27
81.40
81.52
81.63
81.77
81.93
82.05
82.13
82.22
82.32
82.43
82.55
82.63
82.73
82.83
82.95
83.17
83.38
83.63
83.92
84.20
84.32
84.43
84.58
84.70
84.87
85.02
85.15
85.23
85.33
85.42
85.33
85.20
85.07
84.92
84.77
84.60
84.45
84.30
84.15
84.00
83.85
83.68
83.52
83.35
83.17
82.98
82.88
82.78
82.67
82.53
82.42
82.27
82.13
82.03
81.87
81.70
81.50
81.32
81.15
81.03
80.92
80.82
80.73
80.63
80.50
80.42
80.32
80.18
80.00
79.77
79.52
79.27
78.98
78.72
78.42
78.05
77.77
77.53
77.37
77.23
77.27
77.28
77.25
77.17
77.02
76.87
76.65
76.38
76.18
75.98
75.90
75.83
75.77
75.68
75.65
75.63
75.63
75.63
75.65
75.65
75.62
75.58
75.52
75.45
75.38
75.32
75.13
74.95
74.78
74.62
74.43
74.27
74.25
74.17
74.15
74.13
74.13
74.13
74.17
74.15
74.18
74.18
74.27
74.33
74.40
74.48
74.62
74.72
74.92
75.07
75.20
75.35
75.50
75.62
75.77
75.92
76.05
76.15
76.23
76.32
76.42
76.52
76.67
76.90
77.15
77.43
77.83
78.37
78.87
79.35
79.85
80.33
80.80
81.25
81.63
82.02
82.40
82.82
83.22
83.62
84.03
84.45
84.95
85.43
85.97
86.50
87.08
87.68
88.35
89.08
89.75
90.40
90.92
91.45
92.00
92.52
93.02
93.58
93.97
94.45
94.93
95.43
95.83
96.23
96.63
96.92
97.17
97.52
97.75
98.03
98.37
98.67
98.95
99.23
99.50
99.73
99.95
100.17
100.38
100.60
100.80
101.02
101.20
101.38
101.60
101.82
102.00
102.13
102.22
102.37
102.52
102.65
102.78
102.93
103.12
103.30
103.47
103.60
103.75
103.92
104.10
104.28
104.40
104.52
104.60
104.70
104.78
104.87
104.90
104.87
104.90
104.85
104.77
104.70
104.60
104.52
104.40
104.18
104.08
103.90
103.70
103.50
103.33
103.18
103.03
103.00
102.95
102.85
102.80
102.77
102.73
102.72
102.75
102.80
102.88
102.98
103.08
103.13
103.15
103.13
103.12
103.10
103.08
103.00
102.88
102.72
102.53
102.35
102.17
101.95
101.73
101.55
101.40
101.25
101.08
100.90
100.70
100.52
100.33
100.20
100.08
99.93
99.78
99.65
99.52
99.33
99.15
98.97
98.78
98.62
98.47
98.40
98.32
98.23
98.17
98.13
98.13
98.18
98.37
98.55
98.72
98.90
99.07
99.22
99.37
99.47
99.55
99.63
99.68
99.73
99.77
99.78
99.72
99.60
99.45
99.28
99.07
98.77
98.48
98.22
97.95
97.68
97.45
97.25
97.03
96.88
96.78
96.72
96.63
96.57
96.50
96.63
96.70
96.72
96.75
96.80
96.87
97.05
97.13
97.17
97.17
97.17
97.17
97.13
97.07
97.03
97.00
96.97
96.95
96.93
96.92
96.90
96.90
96.92
96.95
96.97
96.97
96.92
96.77
96.63
96.48
96.32
96.13
95.93
95.75
95.58
95.43
95.28
95.15
95.00
94.85
94.72
94.62
94.58
94.58
94.58
94.63
94.82
95.00
95.20
95.43
95.68
95.92
96.20
96.48
96.72
96.92
97.08
97.25
97.42
97.58
97.57
97.58
97.67
97.73
97.78
97.83
97.75
97.75
97.72
97.67
97.65
97.67
97.73
97.83
97.98
98.13
98.30
98.45
98.58
98.70
98.82
98.97
99.10
99.22
99.33
99.45
99.60
99.75
99.82
99.95
100.10
100.28
100.45
100.60
100.77
100.95
101.15
101.38
101.58
101.77
101.98
102.20
102.37
102.52
102.68
102.85
103.00
103.15
103.28
103.38
103.47
103.55
103.58
103.62
103.67
103.72
103.75
103.75
103.73
103.70
103.65
103.58
103.52
103.52
103.55
103.58
103.63
103.68
103.75
103.92
104.07
104.15
104.20
104.23
104.22
104.18
104.10
104.03
104.00
104.00
104.00
103.98
103.98
103.98
103.98
103.97
103.93
103.92
103.98
103.98
103.98
103.98
104.05
104.12
104.17
104.18
104.18
104.15
104.05
103.93
103.82
103.65
103.52
103.38
103.23
103.05
102.88
102.77
102.68
102.62
102.55
102.48
102.43
102.42
102.38
102.32
102.27
102.25
102.22
102.20
102.20
102.25
102.30
102.30
102.30
102.33
102.37
102.28
102.23
102.10
101.97
101.87
101.78
101.72
101.65
101.60
101.58
101.57
101.53
101.48
101.43
101.37
101.28
101.20
101.10
100.98
100.90
100.82
100.73
100.67
100.62
100.53
100.43
100.33
100.23
100.15
100.08
100.03
100.08
100.15
100.17
100.23
100.28
100.33
100.40
100.50
100.58
100.65
100.70
100.72
100.72
100.70
100.70
100.68
100.68
100.73
100.77
100.83
100.95
101.07
101.08
101.08
101.05
100.98
100.90
100.83
100.82
100.92
100.98
101.05
101.15
101.25
101.30
101.35
101.40
101.47
101.52
101.57
101.62
101.67
101.72
101.75
101.72
101.68
101.63
101.62
101.58
101.57
101.55
101.55
101.55
101.58
101.58
101.63
101.70
101.78
101.87
101.90
101.90
101.90
101.78
101.67
101.58
101.47
101.35
101.25
101.10
100.92
100.70
100.50
100.30
100.13
99.95
99.80
99.70
99.60
99.53
99.50
99.45
99.40
99.42
99.43
99.45
99.45
99.42
99.33
99.18
99.03
98.90
98.78
98.70
98.63
98.62
98.60
98.58
98.55
98.55
98.55
98.53
98.53
98.53
98.57
98.67
98.75
98.82
98.92
99.00
99.05
99.10
99.12
99.10
99.03
98.90
98.72
98.53
98.35
98.15
97.98
97.87
97.78
97.85
97.93
98.03
98.17
98.30
98.43
98.62
98.80
99.00
99.17
99.33
99.48
99.63
99.75
99.80
99.83
99.83
99.77
99.67
99.55
99.42
99.27
99.13
99.05
99.05
99.07
99.08
99.10
99.10
99.08
98.98
98.90
98.80
98.67
98.53
98.42
98.28
98.18
98.12
98.05
97.98
97.97
97.95
97.95
97.97
97.95
97.95
97.95
97.93
97.92
97.92
97.95
98.05
98.15
98.23
98.30
98.37
98.42
98.43
98.42
98.37
98.33
98.30
98.27
98.23
98.18
98.13
98.13
98.13
98.17
98.20
98.22
98.25
98.28
98.40
98.52
98.63
98.78
98.95
99.13
99.27
99.40
99.53
99.67
99.73
99.78
99.83
99.87
99.90
99.92
99.95
99.95
99.93
99.93
99.93
99.92
99.90
99.85
99.80
99.77
99.73
99.67
99.58
99.52
99.48
99.43
99.37
99.32
99.27
99.25
99.27
99.30
99.40
99.48
99.58
99.68
99.80
99.93
100.08
100.23
100.40
100.52
100.60
100.65
100.60
100.57
100.53
100.43
100.35
100.28
100.23
100.15
100.05
99.95
99.77
99.62
99.62
99.57
99.55
99.52
99.55
99.60
99.65
99.70
99.77
99.82
99.92
100.02
100.07
100.12
100.05
100.05
100.05
100.07
100.13
100.18
100.15
100.17
100.18
100.15
100.12
100.05
100.02
99.95
99.92
99.90
99.92
99.93
100.02
100.10
100.15
100.13
100.03
99.95
99.82
99.67
99.48
99.32
99.15
99.02
98.90
98.82
98.73
98.67
98.70
98.68
98.67
98.65
98.63
98.60
98.60
98.65
98.70
98.75
98.82
98.83
98.70
98.58
98.40
98.22
98.05
97.87
97.70
97.52
97.35
97.20
97.03
96.88
96.78
96.73
96.80
96.78
96.78
96.72
96.72
96.72
96.80
96.80
96.78
96.83
96.90
96.88
96.85
96.83
96.85
96.85
96.82
96.75
96.67
96.57
96.43
96.27
96.17
96.08
96.08
96.13
96.20
96.17
96.12
96.13
96.23
96.35
96.45
96.60
96.30
96.02
95.73
95.45
95.13
94.80
94.42
94.03
93.65
93.27
92.88
92.52
92.18
91.83
91.50
91.22
90.95
90.70
90.45
90.37
90.25
90.13
90.05
89.95
89.83
89.68
89.50
89.30
88.97
88.70
88.35
88.03
87.73
87.48
87.25
86.97
86.67
86.45
86.20
85.93
85.60
85.27
84.93
84.63
84.27
83.88
83.52
83.22
82.90
82.48
82.05
81.60
81.17
80.83
80.53
80.10
79.57
79.08
78.60
78.08
78.02
77.97
77.92
77.87
77.83
77.77
77.73
77.70
77.67
77.62
77.57
77.52
77.48
77.50
77.53
77.55
77.58
77.63
77.68
77.57
77.43
77.28
77.12
76.97
76.85
76.87
76.98
77.17
77.47
77.73
78.00
78.23
78.43
78.58
78.68
78.62
78.53
78.42
78.32
78.22
78.12
78.03
77.95
77.85
77.78
77.73
77.70
77.68
77.65
77.72
77.77
77.80
77.82
77.82
77.82
77.85
77.88
77.85
77.87
77.90
77.95
78.02
78.07
78.13
78.20
78.32
78.40
78.47
78.52
78.57
78.60
78.62
78.58
78.53
78.48
78.40
78.28
78.13
77.97
77.80
77.67
77.57
77.43
77.32
77.17
76.93
76.65
76.33
76.00
75.67
75.30
74.97
74.67
74.38
74.12
74.03
73.98
73.97
73.93
73.92
73.90
73.88
73.92
73.97
74.03
74.10
74.15
74.20
74.25
74.27
74.27
74.25
74.23
74.22
74.20
74.22
74.25
74.27
74.28
74.27
74.25
74.18
74.12
74.05
73.97
73.87
73.78
73.72
73.67
73.63
73.60
73.58
73.57
73.55
73.52
73.50
73.48
73.47
73.47
73.47
73.47
73.47
73.47
73.45
73.47
73.45
73.38
73.32
73.23
73.13
73.02
72.85
72.65
72.38
72.15
71.92
71.68
71.47
71.28
71.12
71.10
71.07
71.02
70.95
70.87
70.80
70.75
70.68
70.62
70.55
70.50
70.48
70.47
70.45
70.43
70.38
70.33
70.27
70.22
70.17
70.10
70.08
70.05
70.02
69.98
69.97
69.98
69.97
69.98
70.00
70.05
70.08
70.13
70.15
70.17
70.20
70.23
70.27
70.28
70.27
70.27
70.25
70.23
70.22
70.18
70.13
70.13
70.13
70.17
70.23
70.32
70.43
70.57
70.78
70.98
71.18
71.37
71.55
71.73
71.90
71.93
72.00
72.05
72.12
72.18
72.23
72.28
72.33
72.38
72.42
72.43
72.43
72.42
72.40
72.37
72.35
72.32
72.30
72.25
72.22
72.20
72.17
72.18
72.20
72.23
72.27
72.27
72.30
72.30
72.28
72.25
72.23
72.22
72.23
72.27
72.28
72.30
72.33
72.37
72.45
72.52
72.58
72.67
72.73
72.83
72.92
73.02
73.13
73.22
73.37
73.55
73.72
73.88
74.02
74.18
74.32
74.55
74.78
74.92
75.10
75.32
75.52
75.70
75.83
75.87
75.93
75.97
75.98
75.98
76.03
76.10
76.15
76.20
76.23
76.27
76.27
76.27
76.27
76.25
76.28
76.32
76.35
76.40
76.45
76.48
76.50
76.50
76.48
76.43
76.43
76.42
76.45
76.50
76.55
76.65
76.75
76.85
76.92
76.97
76.98
77.00
77.03
77.02
77.05
77.07
77.10
77.12
77.12
77.15
77.08
76.95
76.82
76.68
76.58
76.47
76.38
76.23
76.12
76.10
76.07
75.98
75.92
75.88
75.90
75.97
75.97
76.00
76.03
76.08
76.08
76.05
76.03
76.05
76.08
76.12
76.12
76.10
76.07
76.05
75.98
75.87
75.75
75.63
75.53
75.43
75.37
75.33
75.33
75.37
75.37
75.38
75.37
75.35
75.33
75.28
75.23
75.20
75.18
75.20
75.20
75.22
75.20
75.22
75.20
75.17
75.12
75.07
74.98
74.90
74.80
74.73
74.70
74.70
74.70
74.67
74.63
74.57
74.45
74.37
74.30
74.23
74.33
74.40
74.43
74.52
74.63
74.73
74.87
74.97
75.13
75.32
75.50
75.65
75.80
75.93
76.12
76.27
76.37
76.45
76.48
76.43
76.43
76.38
76.30
76.22
76.10
75.97
75.82
75.67
75.52
75.38
75.22
75.00
74.75
74.48
74.17
73.80
73.48
73.17
72.85
72.52
72.20
71.88
71.57
71.27
71.02
70.77
70.45
70.17
69.90
69.65
69.38
69.08
68.78
68.50
68.15
67.77
67.38
67.00
66.60
66.27
65.75
65.38
65.05
64.73
64.43
64.13
63.85
63.57
63.20
62.83
62.45
62.10
61.73
61.37
60.98
60.65
60.38
60.17
60.00
60.15
60.23
60.33
60.42
60.52
60.63
60.77
60.85
60.90
60.95
61.00
61.05
61.13
61.63
62.15
62.67
63.18
63.63
64.05
64.47
64.83
65.20
65.65
66.10
66.47
66.78
66.93
67.17
67.38
67.60
67.82
68.03
68.23
68.43
68.63
68.90
69.23
69.57
69.85
70.07
70.18
70.30
70.28
70.30
70.30
70.28
70.28
70.30
70.33
70.42
70.65
70.87
71.15
71.40
71.72
72.07
72.40
72.67
72.87
73.05
73.07
73.12
73.32
73.52
73.72
73.85
73.95
74.10
74.33
74.55
74.77
75.02
75.32
75.23
75.15
75.15
75.15
75.17
75.18
75.28
75.43
75.57
75.60
75.70
75.83
75.72
75.77
75.85
75.93
76.03
76.13
76.22
76.30
76.37
76.42
76.45
76.45
76.45
76.47
76.52
76.62
76.75
76.90
77.03
77.17
77.30
77.43
77.53
77.63
77.72
77.68
77.67
77.57
77.53
77.47
77.38
77.32
77.32
77.33
77.37
77.35
77.30
77.13
77.02
76.90
76.87
76.83
76.82
76.73
76.58
76.43
76.27
76.03
75.80
75.55
75.27
75.00
74.73
74.48
74.17
73.85
73.55
73.27
72.90
72.58
72.53
72.48
72.43
72.37
72.32
72.23
72.17
72.12
72.05
71.98
71.92
71.85
71.73
71.60
71.45
71.27
71.05
70.82
70.58
70.38
70.18
69.98
69.78
69.60
69.45
69.28
69.13
68.98
68.82
68.63
68.45
68.27
68.27
68.12
67.98
67.87
67.77
67.67
67.55
67.40
67.25
67.13
67.02
66.97
66.97
66.93
66.88
66.85
66.73
66.68
66.63
66.62
66.63
66.68
66.75
66.83
66.92
66.92
66.83
66.77
66.73
66.72
66.70
66.70
66.72
66.73
66.77
66.80
66.87
66.95
67.03
67.13
67.28
67.47
67.68
67.90
68.12
68.33
68.53
68.70
68.85
69.00
69.15
69.30
69.43
69.57
69.70
69.85
70.00
70.20
70.42
70.67
70.73
70.98
71.25
71.50
71.75
71.98
72.23
72.48
72.72
72.90
73.03
73.12
73.30
73.50
73.70
73.90
74.18
74.47
74.75
75.00
75.25
75.45
75.65
75.83
75.92
76.07
76.33
76.65
76.97
77.18
77.38
77.58
77.77
77.82
77.85
77.88
77.88
77.87
77.83
77.77
77.70
77.62
77.52
77.43
77.37
77.32
77.27
77.22
77.18
77.15
77.10
77.07
77.05
77.03
77.05
77.07
77.08
77.07
77.00
76.90
76.80
76.65
76.43
76.22
76.00
75.75
75.48
75.28
75.10
74.95
74.87
74.78
74.63
74.48
74.30
74.12
73.95
73.70
73.45
73.33
73.12
72.90
72.67
72.43
72.30
72.18
72.07
71.85
71.58
71.38
71.15
70.87
70.68
70.67
70.65
70.63
70.65
70.70
70.77
70.85
70.93
70.98
71.00
71.02
71.02
70.97
70.92
70.90
70.88
70.92
70.95
70.95
70.93
70.92
70.87
70.82
70.77
70.70
70.65
70.60
70.55
70.52
70.50
70.50
70.50
70.52
70.55
70.55
70.53
70.52
70.45
70.37
70.30
70.22
70.18
70.13
70.07
70.00
69.93
69.75
69.65
69.57
69.50
69.43
69.37
69.30
69.22
69.15
69.12
69.12
69.17
69.27
69.27
69.25
69.25
69.27
69.27
69.25
69.22
69.18
69.17
69.20
69.25
69.30
69.30
69.35
69.42
69.40
69.43
69.43
69.48
69.70
69.95
70.22
70.48
70.70
70.88
71.05
71.22
71.37
71.48
71.57
71.65
71.73
71.82
71.88
71.93
71.98
72.07
72.15
72.28
72.45
72.58
72.75
72.93
73.12
73.30
73.48
73.67
73.83
73.98
74.15
74.32
74.38
74.48
74.58
74.70
74.82
74.92
75.00
75.07
75.12
75.15
75.18
75.20
75.18
75.17
75.13
75.13
75.12
75.10
75.08
75.08
75.08
75.13
75.17
75.18
75.23
75.22
75.18
75.10
74.88
74.62
74.35
74.08
73.85
73.65
73.48
73.33
73.17
73.08
73.03
73.00
73.00
73.02
73.05
73.08
73.12
73.12
73.12
73.10
73.05
73.00
72.92
72.78
72.65
72.50
72.37
72.20
72.05
71.90
71.72
71.53
71.42
71.27
71.12
70.97
70.85
70.82
70.78
70.77
70.75
70.75
70.73
70.68
70.60
70.53
70.48
70.43
70.42
70.38
70.33
70.30
70.27
70.23
70.22
70.20
70.17
70.17
70.17
70.18
70.18
70.20
70.20
70.22
70.22
70.18
70.13
70.08
70.05
69.97
69.87
69.77
69.63
69.45
69.25
69.03
68.78
68.50
68.22
67.93
67.55
67.20
66.88
66.62
66.38
66.13
65.88
65.58
65.30
65.02
64.75
64.60
64.52
64.47
64.40
64.33
64.22
64.03
63.85
63.68
63.55
63.38
63.25
63.18
63.08
63.00
62.90
62.78
62.92
63.03
63.13
63.22
63.28
63.33
63.35
63.37
63.42
63.43
63.45
63.47
63.48
63.50
63.52
63.52
63.53
63.62
63.68
63.73
63.78
63.85
63.95
64.03
64.12
64.22
64.33
64.47
64.63
64.80
64.97
65.12
65.40
65.67
65.93
66.18
66.43
66.72
67.00
67.37
67.72
68.07
68.43
68.70
68.93
69.13
69.35
69.53
69.73
69.92
70.08
70.22
70.33
70.45
70.58
70.62
70.82
70.98
71.17
71.33
71.23
71.38
71.50
71.63
71.75
71.92
72.12
72.28
72.45
72.78
73.12
73.58
74.02
74.43
74.80
75.18
75.55
75.92
76.28
76.65
77.03
77.42
77.78
78.18
78.58
79.03
79.48
79.95
80.45
81.03
81.62
82.20
82.77
83.32
83.85
84.35
84.77
85.15
85.52
85.87
86.18
86.53
86.85
87.17
87.50
87.85
88.20
88.58
88.97
89.33
89.72
90.12
90.53
90.98
91.43
91.97
92.40
92.85
93.28
93.73
94.17
94.35
94.57
94.72
95.00
95.22
95.43
95.67
95.90
95.93
95.93
95.83
95.77
95.73
95.77
95.78
95.83
95.87
95.92
95.97
96.02
96.07
96.13
96.18
96.23
96.23
96.23
96.23
96.20
96.12
96.03
95.98
95.90
95.82
95.75
95.65
95.65
95.70
95.78
95.87
96.02
96.15
96.25
96.30
96.38
96.43
96.47
96.55
96.63
96.75
96.90
97.05
97.12
97.18
97.25
97.33
97.40
97.45
97.52
97.55
97.62
97.70
97.78
97.87
97.83
97.88
97.92
98.00
98.07
98.17
98.30
98.40
98.48
98.53
98.55
98.53
98.48
98.40
98.32
98.25
98.23
98.20
98.15
98.05
97.98
97.95
97.93
97.88
97.83
97.95
98.07
98.13
98.25
98.38
98.50
98.68
98.77
98.83
98.85
98.88
98.87
98.83
98.85
98.92
98.95
99.02
99.07
99.03
99.05
98.98
99.12
99.23
99.42
99.58
99.73
99.87
100.08
100.30
100.50
100.73
100.93
101.15
101.38
101.63
101.88
102.07
102.25
102.38
102.50
102.57
102.65
102.72
102.82
102.90
102.97
103.03
103.10
103.18
103.25
103.33
103.37
103.40
103.42
103.48
103.53
103.52
103.52
103.53
103.58
103.50
103.43
103.43
103.42
103.40
103.40
103.40
103.47
103.52
103.60
103.68
103.80
103.92
103.97
104.00
104.02
103.98
104.02
104.03
104.08
104.20
104.07
103.93
103.78
103.65
103.50
103.32
103.08
102.85
102.67
102.52
102.38
102.23
102.08
101.85
101.62
101.50
101.42
101.35
101.32
101.35
101.40
101.42
101.38
101.38
101.43
101.50
101.52
101.55
101.57
101.57
101.57
101.57
101.62
101.57
101.50
101.52
101.50
101.52
101.52
101.42
101.28
101.23
101.22
101.22
101.18
101.17
101.10
101.15
101.17
100.97
100.75
100.55
100.38
100.20
100.02
99.85
99.65
99.45
99.17
98.90
98.62
98.33
98.07
97.77
97.43
97.08
96.75
96.42
96.02
95.62
95.25
94.93
94.57
94.33
94.10
93.80
93.48
93.18
92.87
92.55
92.20
91.95
91.72
91.48
91.23
91.00
90.83
90.67
90.52
90.33
90.13
89.92
89.67
89.50
89.33
89.12
88.92
88.70
88.50
88.35
88.28
88.10
87.88
87.67
87.47
87.23
87.05
86.77
86.52
86.48
86.43
86.38
86.37
86.40
86.47
86.57
86.67
86.82
86.97
87.08
87.25
87.43
87.60
87.80
88.02
88.28
88.48
88.72
89.00
89.28
89.55
89.80
90.12
90.42
90.73
90.97
91.18
91.35
91.53
91.73
91.95
92.12
92.25
92.37
92.47
92.58
92.70
92.80
92.93
93.15
93.37
93.63
93.92
94.22
94.50
94.80
95.08
95.35
95.58
95.80
95.98
96.13
96.23
96.32
96.38
96.47
96.55
96.65
96.77
96.87
96.97
97.03
97.05
97.02
96.93
96.83
96.73
96.63
96.53
96.45
96.38
96.37
96.33
96.32
96.30
96.28
96.30
96.28
96.23
96.13
96.03
95.90
95.73
95.55
95.32
95.15
94.92
94.75
94.52
94.30
94.08
93.88
93.73
93.60
93.45
93.27
93.02
92.77
92.50
92.17
91.83
91.47
91.08
90.68
90.30
89.93
89.57
89.27
88.93
88.58
88.17
87.73
87.33
86.92
86.65
86.40
86.15
85.90
85.58
85.30
85.00
84.75
84.52
84.27
84.02
83.73
83.43
83.12
82.78
82.45
82.07
81.62
81.20
80.77
80.33
79.88
79.45
79.00
78.57
78.15
77.72
77.28
76.85
76.43
76.07
75.68
75.37
75.02
74.73
74.42
74.08
73.73
73.38
73.03
72.72
72.42
72.20
71.98
71.77
71.57
71.38
71.20
71.02
70.85
70.67
70.45
70.23
69.95
69.70
69.50
69.33
69.20
69.07
68.95
68.72
68.47
68.20
67.92
67.68
67.43
67.23
67.02
66.83
66.68
66.55
66.45
66.37
66.28
66.20
66.12
66.07
66.02
65.97
65.92
65.90
65.88
65.87
65.87
65.87
65.88
65.90
65.92
65.95
65.98
66.03
66.08
66.13
66.18
66.25
66.32
66.37
66.40
66.43
66.43
66.43
66.43
66.42
66.38
66.35
66.32
66.28
66.25
66.22
66.20
66.20
66.20
66.20
66.20
66.22
66.23
66.25
66.27
66.30
66.33
66.35
66.37
66.42
66.47
66.52
66.57
66.58
66.57
66.55
66.55
66.55
66.58
66.60
66.63
66.70
66.75
66.82
66.83
66.87
66.90
66.93
66.98
67.03
67.08
67.17
67.18
67.27
