1532076227.000000, IBI
14.422535,1.000046
15.360078,0.937543
16.235118,0.875040
17.078907,0.843789
17.797690,0.718783
18.500847,0.703157
19.172753,0.671906
19.844658,0.671906
20.485313,0.640654
29.063830,1.015671
30.095128,1.031297
31.063922,0.968794
32.063968,1.000046
32.954633,0.890666
33.907802,0.953169
34.892222,0.984420
35.861017,0.968794
36.798559,0.937543
37.736102,0.937543
44.033266,1.046923
45.017686,0.984420
45.986480,0.968794
46.845894,0.859414
47.783437,0.937543
48.814734,1.031297
49.721026,0.906291
50.658569,0.937543
51.674240,1.015671
52.674286,1.000046
53.611829,0.937543
54.424366,0.812537
55.205652,0.781286
56.236949,1.031297
57.174492,0.937543
58.096409,0.921917
58.940198,0.843789
59.705858,0.765660
60.455892,0.750034
61.284055,0.828163
66.190530,0.953169
67.143698,0.953169
68.003113,0.859414
68.940656,0.937543
69.878199,0.937543
70.768864,0.890666
71.628279,0.859414
72.456442,0.828163
73.362733,0.906291
74.300276,0.937543
75.128439,0.828163
76.065982,0.937543
77.066028,1.000046
78.019196,0.953169
78.941113,0.921917
79.800528,0.859414
80.581814,0.781286
81.316222,0.734409
82.050631,0.734409
82.831917,0.781286
83.597577,0.765660
84.347611,0.750034
98.457632,0.734409
99.270169,0.812537
100.067080,0.796911
100.988998,0.921917
101.676529,0.687531
102.473441,0.796911
103.379732,0.906291
104.239146,0.859414
105.192315,0.953169
106.051729,0.859414
106.973647,0.921917
107.958067,0.984420
115.395907,0.937543
116.255322,0.859414
117.208490,0.953169
118.146033,0.937543
119.021073,0.875040
119.958616,0.937543
120.958662,1.000046
149.288084,0.953169
150.194375,0.906291
151.085041,0.890666
152.069461,0.984420
153.053881,0.984420
153.975798,0.921917
154.975844,1.000046
156.022767,1.046923
157.007187,0.984420
157.975981,0.968794
159.022904,1.046923
160.163581,1.140677
161.179253,1.015671
162.210550,1.031297
163.273099,1.062549
164.257519,0.984420
165.288816,1.031297
166.335739,1.046923
167.367036,1.031297
168.351456,0.984420
169.414005,1.062549
170.476553,1.062549
171.445348,0.968794
172.445394,1.000046
173.507942,1.062549
174.461111,0.953169
175.414279,0.953169
176.508080,1.093800
177.601880,1.093800
178.586300,0.984420
184.649077,0.984420
185.664749,1.015671
194.665161,1.031297
195.712084,1.046923
196.665252,0.953169
197.680924,1.015671
198.712221,1.031297
199.759144,1.046923
200.681061,0.921917
201.806113,1.125051
213.353516,1.031297
214.337936,0.984420
215.337982,1.000046
216.369279,1.031297
217.400576,1.031297
218.353745,0.953169
219.385042,1.031297
220.463217,1.078174
221.447637,0.984420
222.463308,1.015671
223.525857,1.062549
224.604031,1.078174
225.541574,0.937543
226.588497,1.046923
227.635420,1.046923
228.588588,0.953169
229.651137,1.062549
230.760563,1.109426
231.838737,1.078174
232.870034,1.031297
233.916957,1.046923
234.963880,1.046923
235.901423,0.937543
236.917095,1.015671
237.964018,1.046923
238.932812,0.968794
239.948483,1.015671
241.011032,1.062549
241.995452,0.984420
243.011124,1.015671
244.073672,1.062549
245.120595,1.046923
246.089390,0.968794
247.136312,1.046923
248.183235,1.046923
249.136404,0.953169
250.136450,1.000046
251.167747,1.031297
252.167793,1.000046
253.136587,0.968794
254.167884,1.031297
255.214807,1.046923
256.214853,1.000046
257.261776,1.046923
258.339950,1.078174
259.293119,0.953169
260.308790,1.015671
261.355713,1.046923
262.293256,0.937543
263.246425,0.953169
264.293348,1.046923
265.215265,0.921917
266.199685,0.984420
267.246608,1.046923
268.309157,1.062549
269.277951,0.968794
270.293622,1.015671
271.324920,1.031297
272.324965,1.000046
273.262508,0.937543
274.293806,1.031297
275.325103,1.031297
276.293897,0.968794
277.309569,1.015671
278.372117,1.062549
279.403414,1.031297
280.372209,0.968794
281.434757,1.062549
282.497306,1.062549
283.497352,1.000046
284.513023,1.015671
285.559946,1.046923
286.575618,1.015671
287.528786,0.953169
288.575709,1.046923
289.653884,1.078174
290.653929,1.000046
291.732104,1.078174
292.841530,1.109426
293.904078,1.062549
294.888498,0.984420
295.935421,1.046923
296.935467,1.000046
297.919887,0.984420
298.966810,1.046923
300.044984,1.078174
301.060656,1.015671
302.091953,1.031297
303.154502,1.062549
304.185799,1.031297
305.154593,0.968794
306.201516,1.046923
307.264065,1.062549
308.279736,1.015671
309.264156,0.984420
310.311079,1.046923
311.326751,1.015671
312.279919,0.953169
313.170585,0.890666
314.170631,1.000046
315.139425,0.968794
316.045717,0.906291
317.014511,0.968794
318.077060,1.062549
319.061480,0.984420
319.999023,0.937543
321.045946,1.046923
322.092869,1.046923
323.030411,0.937543
324.030457,1.000046
325.061754,1.031297
326.030549,0.968794
326.952466,0.921917
327.968138,1.015671
328.999435,1.031297
329.952603,0.953169
330.968275,1.015671
332.015198,1.046923
333.046495,1.031297
334.015289,0.968794
335.062212,1.046923
336.124761,1.062549
337.124807,1.000046
338.109227,0.984420
339.140524,1.031297
340.187447,1.046923
341.156241,0.968794
342.187538,1.031297
343.265713,1.078174
344.297010,1.031297
345.265804,0.968794
346.312727,1.046923
347.484656,1.171929
348.547204,1.062549
349.469122,0.921917
350.422290,0.953169
351.266079,0.843789
352.031739,0.765660
353.109913,1.078174
354.016205,0.906291
360.657134,0.937543
361.688431,1.031297
362.750980,1.062549
363.829154,1.078174
364.907328,1.078174
365.985503,1.078174
367.001174,1.015671
368.063723,1.062549
369.110646,1.046923
370.157569,1.046923
371.157614,1.000046
372.204537,1.046923
373.267086,1.062549
374.251506,0.984420
375.282803,1.031297
376.376603,1.093800
377.439152,1.062549
378.423572,0.984420
379.470495,1.046923
380.548669,1.078174
381.517464,0.968794
382.501884,0.984420
383.533181,1.031297
384.595730,1.062549
385.564524,0.968794
386.611447,1.046923
387.658370,1.046923
388.689667,1.031297
389.705338,1.015671
390.721010,1.015671
391.783559,1.062549
392.767979,0.984420
393.768024,1.000046
394.814947,1.046923
395.877496,1.062549
396.815039,0.937543
397.877588,1.062549
398.955762,1.078174
399.955808,1.000046
400.987105,1.031297
402.034028,1.046923
403.127828,1.093800
404.065371,0.937543
405.096668,1.031297
406.143591,1.046923
407.128011,0.984420
408.081180,0.953169
409.112477,1.031297
410.190651,1.078174
411.190697,1.000046
412.221994,1.031297
413.300169,1.078174
414.268963,0.968794
415.284634,1.015671
416.331557,1.046923
417.347229,1.015671
418.316023,0.968794
419.331695,1.015671
420.362992,1.031297
421.284909,0.921917
422.238078,0.953169
423.238123,1.000046
424.253795,1.015671
425.191338,0.937543
426.222635,1.031297
427.316435,1.093800
428.457112,1.140677
429.472784,1.015671
430.504081,1.031297
431.551004,1.046923
432.551050,1.000046
433.582347,1.031297
434.629270,1.046923
435.660567,1.031297
436.613736,0.953169
437.660659,1.046923
438.723207,1.062549
439.707627,0.984420
440.707673,1.000046
441.770222,1.062549
442.864022,1.093800
443.848442,0.984420
444.895365,1.046923
445.973539,1.078174
446.942333,0.968794
447.958005,1.015671
449.004928,1.046923
450.051851,1.046923
451.020645,0.968794
452.036317,1.015671
453.051988,1.015671
453.973905,0.921917
454.895823,0.921917
455.958371,1.062549
457.005294,1.046923
457.911586,0.906291
458.942883,1.031297
460.036683,1.093800
461.005477,0.968794
461.974272,0.968794
463.005569,1.031297
464.083743,1.078174
465.068163,0.984420
466.021332,0.953169
467.052629,1.031297
468.083926,1.031297
469.037095,0.953169
470.021515,0.984420
471.005935,0.984420
471.849724,0.843789
472.865395,1.015671
473.849815,0.984420
474.802984,0.953169
475.803030,1.000046
476.834327,1.031297
477.756244,0.921917
478.771915,1.015671
479.787587,1.015671
480.756381,0.968794
481.693924,0.937543
482.709596,1.015671
483.756519,1.046923
484.725313,0.968794
485.740984,1.015671
486.819159,1.078174
487.850456,1.031297
488.819250,0.968794
489.866173,1.046923
490.928722,1.062549
491.897516,0.968794
492.835059,0.937543
493.850731,1.015671
494.882028,1.031297
495.835196,0.953169
496.882119,1.046923
497.960294,1.078174
498.944714,0.984420
499.976011,1.031297
501.007308,1.031297
501.976103,0.968794
502.960523,0.984420
503.991820,1.031297
505.023117,1.031297
505.991911,0.968794
507.023209,1.031297
508.085757,1.062549
509.085803,1.000046
510.054597,0.968794
511.117146,1.062549
512.164069,1.046923
513.085986,0.921917
514.101658,1.015671
515.148581,1.046923
516.117375,0.968794
517.086169,0.968794
518.133092,1.046923
519.180015,1.046923
520.133184,0.953169
521.148855,1.015671
522.180152,1.031297
523.133321,0.953169
524.086490,0.953169
525.133413,1.046923
526.149084,1.015671
527.086627,0.937543
528.071047,0.984420
529.102344,1.031297
530.149267,1.046923
531.118062,0.968794
532.149359,1.031297
533.180656,1.031297
534.149450,0.968794
535.102619,0.953169
536.118290,1.015671
537.180839,1.062549
538.134008,0.953169
539.118428,0.984420
540.180976,1.062549
541.227899,1.046923
542.165442,0.937543
543.227991,1.062549
544.290540,1.062549
545.290585,1.000046
546.275005,0.984420
547.321928,1.046923
548.337600,1.015671
549.259517,0.921917
550.243937,0.984420
551.259609,1.015671
552.244029,0.984420
553.244074,1.000046
554.337874,1.093800
555.462926,1.125051
556.478597,1.015671
557.572397,1.093800
558.509940,0.937543
559.338103,0.828163
560.306898,0.968794
561.322569,1.015671
562.353866,1.031297
563.307035,0.953169
564.291455,0.984420
565.322752,1.031297
566.338424,1.015671
567.291592,0.953169
568.244761,0.953169
569.244807,1.000046
570.276104,1.031297
571.244898,0.968794
572.213693,0.968794
573.260616,1.046923
574.291913,1.031297
575.198204,0.906291
576.213876,1.015671
577.198296,0.984420
578.042084,0.843789
578.979627,0.937543
579.948422,0.968794
580.807836,0.859414
581.807882,1.000046
582.839179,1.031297
583.870476,1.031297
584.808019,0.937543
585.823691,1.015671
586.870614,1.046923
587.855034,0.984420
588.839454,0.984420
589.886377,1.046923
590.948925,1.062549
591.917720,0.968794
592.949017,1.031297
594.011565,1.062549
594.964734,0.953169
595.964780,1.000046
597.011703,1.046923
598.074251,1.062549
599.027420,0.953169
600.074343,1.046923
601.121266,1.046923
602.105686,0.984420
603.074480,0.968794
604.121403,1.046923
605.137075,1.015671
606.090243,0.953169
607.027786,0.937543
608.059083,1.031297
609.090381,1.031297
610.059175,0.968794
611.043595,0.984420
612.106144,1.062549
613.137441,1.031297
614.106235,0.968794
615.153158,1.046923
616.215707,1.062549
617.200127,0.984420
618.215798,1.015671
619.262721,1.046923
620.184639,0.921917
621.122181,0.937543
622.200356,1.078174
623.278530,1.078174
624.247324,0.968794
625.294247,1.046923
626.388047,1.093800
627.403719,1.015671
628.450642,1.046923
629.497565,1.046923
630.560113,1.062549
631.560159,1.000046
632.622708,1.062549
633.732134,1.109426
634.763431,1.031297
635.794728,1.031297
636.872902,1.078174
637.919825,1.046923
638.888620,0.968794
639.982420,1.093800
641.076220,1.093800
642.091891,1.015671
643.138814,1.046923
644.232614,1.093800
645.232660,1.000046
646.310834,1.078174
647.404634,1.093800
648.420306,1.015671
649.451603,1.031297
650.545403,1.093800
651.576700,1.031297
652.623623,1.046923
653.733049,1.109426
654.686218,0.953169
655.905024,1.218806
656.967572,1.062549
661.905298,1.046923
662.952221,1.046923
663.936641,0.984420
664.967938,1.031297
666.014861,1.046923
667.014907,1.000046
668.014953,1.000046
669.077502,1.062549
670.108799,1.031297
671.077593,0.968794
672.140142,1.062549
673.202690,1.062549
674.155859,0.953169
675.171530,1.015671
676.218453,1.046923
677.249751,1.031297
678.187294,0.937543
679.234216,1.046923
680.281139,1.046923
681.203057,0.921917
682.249979,1.046923
683.328154,1.078174
684.312574,0.984420
685.343871,1.031297
686.390794,1.046923
687.328337,0.937543
688.297131,0.968794
689.344054,1.046923
690.406603,1.062549
691.359771,0.953169
692.422320,1.062549
693.359863,0.937543
694.406786,1.046923
695.406832,1.000046
696.391252,0.984420
697.297543,0.906291
698.313215,1.015671
699.344512,1.031297
700.235178,0.890666
701.235224,1.000046
702.282146,1.046923
703.297818,1.015671
704.297864,1.000046
705.360412,1.062549
706.422961,1.062549
707.391755,0.968794
708.423053,1.031297
709.469975,1.046923
710.423144,0.953169
711.391938,0.968794
712.407610,1.015671
713.423281,1.015671
714.392076,0.968794
715.438999,1.046923
716.517173,1.078174
717.485967,0.968794
718.470387,0.984420
719.532936,1.062549
720.532982,1.000046
721.408022,0.875040
722.439319,1.031297
723.486242,1.046923
724.455036,0.968794
725.439456,0.984420
726.486379,1.046923
727.533302,1.046923
728.455220,0.921917
729.439640,0.984420
730.470937,1.031297
731.470983,1.000046
732.377274,0.906291
733.377320,1.000046
734.424243,1.046923
735.330534,0.906291
736.393083,1.062549
737.455631,1.062549
738.471303,1.015671
739.346343,0.875040
740.502646,1.156303
748.159246,0.984420
749.081164,0.921917
750.034332,0.953169
750.987501,0.953169
751.846915,0.859414
752.721955,0.875040
758.878487,0.734409
759.612896,0.734409
760.425433,0.812537
761.347350,0.921917
762.003630,0.656280
762.784916,0.781286
763.534950,0.750034
764.347487,0.812537
764.988142,0.640654
765.706925,0.718783
766.363205,0.656280
767.128865,0.765660
767.691391,0.562526
768.410173,0.718783
769.050828,0.640654
769.691482,0.640654
770.394639,0.703157
771.035294,0.640654
771.644696,0.609403
772.175971,0.531274
772.629117,0.453146
780.082583,0.750034
780.988874,0.906291
781.879540,0.890666
782.738954,0.859414
783.535866,0.796911
784.489034,0.953169
785.332823,0.843789
786.332869,1.000046
870.180457,0.828163
886.446826,1.000046
906.885262,0.562526
907.447788,0.562526
907.963436,0.515649
908.666594,0.703157
909.213494,0.546900
909.822896,0.609403
910.401048,0.578151
911.010451,0.609403
911.604228,0.593777
912.198005,0.593777
912.682402,0.484397
943.152547,0.546900
943.715073,0.562526
948.074647,0.578151
948.762179,0.687531
951.184165,0.500023
954.153051,0.453146
954.653074,0.500023
955.137471,0.484397
955.606242,0.468771
956.153142,0.546900
965.200431,0.406269
965.794209,0.593777
968.122440,0.468771
968.544334,0.421894
969.075609,0.531274
971.935115,0.500023
972.403886,0.468771
972.903909,0.500023
973.325803,0.421894
973.778949,0.453146
974.232095,0.453146
974.747743,0.515649
975.216515,0.468771
979.826101,0.468771
980.294872,0.468771
980.732392,0.437520
981.263667,0.531274
987.248316,0.500023
987.685836,0.437520
988.170233,0.484397
988.639004,0.468771
989.060899,0.421894
989.576547,0.515649
989.982816,0.406269
990.451587,0.468771
990.998487,0.546900
991.436007,0.437520
993.811116,0.500023
994.264262,0.453146
994.717407,0.453146
995.201805,0.484397
995.701828,0.500023
996.170599,0.468771
996.623745,0.453146
997.092516,0.468771
1010.983777,0.406269
1011.499426,0.515649
1011.936946,0.437520
1012.405717,0.468771
1012.858863,0.453146
1013.312009,0.453146
1013.765154,0.453146
1014.202674,0.437520
1014.733949,0.531274
1015.140217,0.406269
1015.671492,0.531274
1016.062135,0.390643
1016.484029,0.421894
1017.015303,0.531274
1023.437472,0.453146
1023.999998,0.562526
1026.234475,0.515649
1026.687621,0.453146
1038.672544,0.437520
1039.156942,0.484397
1039.594462,0.437520
1040.094485,0.500023
1040.469502,0.375017
1040.969525,0.500023
1058.360946,0.500023
1059.001600,0.640654
1079.283778,0.750034
1099.222191,0.609403
1099.737840,0.515649
1100.472248,0.734409
1105.238091,0.609403
1111.035232,0.500023
1134.973828,0.609403
1135.645733,0.671906
1136.302013,0.656280
1136.833288,0.531274
1137.442691,0.609403
1138.083345,0.640654
1138.630245,0.546900
1139.317776,0.687531
1145.396180,0.546900
1151.146443,0.468771
1156.193549,0.500023
1156.646695,0.453146
1157.068589,0.421894
1160.178106,0.500023
1160.646878,0.468771
1164.209541,0.468771
1164.678312,0.468771
1165.193961,0.515649
1165.725235,0.531274
1166.256510,0.531274
1168.647244,0.484397
1169.053513,0.406269
1169.553535,0.500023
1170.131687,0.578151
1170.569207,0.437520
1171.006727,0.437520
1171.459873,0.453146
1171.959896,0.500023
1172.522421,0.562526
1174.803776,0.421894
1175.303799,0.500023
1175.741319,0.437520
1176.178839,0.437520
1176.694487,0.515649
1177.178885,0.484397
1177.694533,0.515649
1179.975888,0.390643
1180.429033,0.453146
1180.866553,0.437520
1185.038619,0.484397
1185.507391,0.468771
1189.695082,0.421894
1190.179480,0.484397
1190.679502,0.500023
1191.101397,0.421894
1191.663923,0.562526
1192.132694,0.468771
1192.632717,0.500023
1193.070237,0.437520
1193.570260,0.500023
1193.992154,0.421894
1194.507803,0.515649
1194.945323,0.437520
1195.429720,0.484397
1196.039123,0.609403
1198.226723,0.531274
1198.648617,0.421894
1199.211143,0.562526
1199.726792,0.515649
1205.227043,0.453146
1205.617686,0.390643
1206.102083,0.484397
1206.555229,0.453146
1207.039626,0.484397
1207.414644,0.375017
1207.899041,0.484397
1208.367812,0.468771
1208.774081,0.406269
1209.227226,0.453146
1209.695998,0.468771
1210.071015,0.375017
1210.555412,0.484397
1210.992932,0.437520
1211.446078,0.453146
1211.852347,0.406269
1212.305492,0.453146
1212.758638,0.453146
1213.211784,0.453146
1213.633678,0.421894
1214.071198,0.437520
1214.493093,0.421894
1214.977490,0.484397
1215.508764,0.531274
1217.602610,0.421894
1218.102633,0.500023
1218.462024,0.359391
1218.946421,0.484397
1219.368316,0.421894
1219.790210,0.421894
1220.290233,0.500023
1220.665250,0.375017
1221.087144,0.421894
1221.493413,0.406269
1221.930933,0.437520
1222.368453,0.437520
1222.774722,0.406269
1223.243493,0.468771
1238.259805,0.453146
1238.619197,0.359391
1239.103594,0.484397
1239.525488,0.421894
1239.900506,0.375017
1240.338026,0.437520
1240.822423,0.484397
1249.463443,0.406269
1253.651135,0.390643
1254.057404,0.406269
1256.995038,0.406269
1257.401307,0.406269
1257.885704,0.484397
1258.245095,0.359391
1258.682615,0.437520
1259.042007,0.359391
1288.543357,0.531274
1289.012129,0.468771
1299.903252,0.515649
1300.418901,0.515649
1301.043929,0.625029
1388.219795,0.609403
1388.860449,0.640654
1389.516729,0.656280
1390.110506,0.593777
1390.719909,0.609403
1391.376189,0.656280
1391.985592,0.609403
1392.579369,0.593777
1393.173146,0.593777
1393.798175,0.625029
1394.391952,0.593777
1395.001355,0.609403
1395.626384,0.625029
1396.282664,0.656280
1396.907692,0.625029
1404.220527,0.656280
1404.908059,0.687531
1405.564339,0.656280
1406.189367,0.625029
1468.567223,0.687531
1469.301631,0.734409
1493.959010,0.828163
1494.802799,0.843789
1495.646587,0.843789
1496.459125,0.812537
1497.287287,0.828163
1498.052948,0.765660
1498.849859,0.796911
1499.693648,0.843789
1500.521811,0.828163
1501.381225,0.859414
1502.209388,0.828163
1503.053176,0.843789
1537.492253,0.890666
1538.398544,0.906291
1539.257959,0.859414
1540.086122,0.828163
1556.086854,0.890666
1556.961894,0.875040
1576.759675,0.875040
1577.587838,0.828163
1578.369124,0.781286
1579.181661,0.812537
1599.698225,0.859414
1608.464252,0.640654
1697.655834,0.765660
1698.358991,0.703157
1718.672421,0.750034
1719.313076,0.640654
1720.031858,0.718783
1720.860021,0.828163
1721.625681,0.765660
1727.422822,0.687531
1728.172856,0.750034
1728.922890,0.750034
1753.861532,0.750034
1777.612619,0.734409
1778.425156,0.812537
1781.815937,0.671906
1782.487842,0.671906
1783.222251,0.734409
1783.847280,0.625029
1784.487934,0.640654
1787.972468,0.718783
1788.613123,0.640654
1789.363157,0.750034
1790.066314,0.703157
1790.925729,0.859414
1813.676770,0.687531
1814.333050,0.656280
1815.004956,0.671906
1815.661236,0.656280
1816.505024,0.843789
1817.333187,0.828163
1818.114473,0.781286
1818.958262,0.843789
1819.770799,0.812537
1820.473956,0.703157
1821.239616,0.765660
1821.942773,0.703157
1822.708433,0.765660
1823.458468,0.750034
1824.130373,0.671906
1839.631083,0.703157
1840.506123,0.875040
1845.162586,0.703157
1845.850118,0.687531
1846.490772,0.640654
1847.209555,0.718783
1847.865835,0.656280
1848.631495,0.765660
1851.928521,0.750034
1852.616052,0.687531
1853.397338,0.781286
1854.147372,0.750034
1854.881781,0.734409
1855.600564,0.718783
1856.272470,0.671906
1856.975627,0.703157
1857.678784,0.703157
1858.350690,0.671906
1859.100724,0.750034
1859.882010,0.781286
1860.632044,0.750034
1861.397704,0.765660
1862.147739,0.750034
1862.897773,0.750034
1863.600930,0.703157
1864.304087,0.703157
1865.007245,0.703157
1865.647899,0.640654
1871.304408,0.781286
1872.085694,0.781286
1872.866979,0.781286
1873.695142,0.828163
1874.554557,0.859414
1875.195211,0.640654
1875.945245,0.750034
1876.695280,0.750034
1877.414062,0.718783
1878.132845,0.718783
1884.555014,0.703157
1885.336300,0.781286
1886.180089,0.843789
1886.961375,0.781286
1887.727035,0.765660
1888.523946,0.796911
1889.336483,0.812537
1890.102143,0.765660
1890.899055,0.796911
1891.633463,0.734409
1892.383498,0.750034
1893.133532,0.750034
1922.869268,0.625029
1962.042936,0.531274
1962.730468,0.687531
1963.324245,0.593777
1963.949274,0.625029
2012.170231,0.656280
2012.889014,0.718783
2013.576545,0.687531
2014.279702,0.703157
2014.904731,0.625029
2015.561011,0.656280
2016.357923,0.796911
2017.045454,0.687531
2017.779863,0.734409
2018.451768,0.671906
2068.860326,0.531274
2069.422852,0.562526
2069.969752,0.546900
2088.111207,0.515649
2099.330471,0.609403
2099.908622,0.578151
2100.486773,0.578151
2101.018048,0.531274
2101.596199,0.578151
2102.189976,0.593777
2102.783754,0.593777
2103.393157,0.609403
2103.986934,0.593777
2104.705717,0.718783
2105.455751,0.750034
2248.821688,0.703157
2249.571723,0.750034
2250.306131,0.734409
2250.962411,0.656280
2251.649943,0.687531
2252.353100,0.703157
2252.978129,0.625029
2253.681286,0.703157
2254.384443,0.703157
2255.025097,0.640654
2255.665752,0.640654
2256.275155,0.609403
2256.884557,0.609403
2257.509586,0.625029
2258.150240,0.640654
2258.759643,0.609403
2259.353420,0.593777
2259.962823,0.609403
2260.587852,0.625029
2261.197255,0.609403
2261.822284,0.625029
2262.462938,0.640654
2263.103592,0.640654
2263.744246,0.640654
2264.431778,0.687531
2265.166187,0.734409
2265.900595,0.734409
2266.635004,0.734409
2267.353787,0.718783
2268.056944,0.703157
2268.728850,0.671906
2269.353878,0.625029
2269.978907,0.625029
2270.635187,0.656280
2271.228964,0.593777
2271.869618,0.640654
2272.541524,0.671906
2273.307184,0.765660
2273.963464,0.656280
2274.650996,0.687531
2275.416656,0.765660
2275.979182,0.562526
2276.588584,0.609403
2277.276116,0.687531
2277.901145,0.625029
2278.479296,0.578151
2279.166827,0.687531
2279.854359,0.687531
2280.557516,0.703157
2298.120820,0.703157
2302.824160,0.687531
2303.496066,0.671906
2304.199223,0.703157
2304.871129,0.671906
2305.511783,0.640654
2306.105561,0.593777
2306.793092,0.687531
2307.418121,0.625029
2308.011898,0.593777
2308.699429,0.687531
2309.433838,0.734409
2327.075270,0.531274
2327.684673,0.609403
2328.325328,0.640654
2328.934731,0.609403
2329.591011,0.656280
2330.153536,0.562526
2330.794191,0.640654
2331.387968,0.593777
2331.903616,0.515649
2332.544271,0.640654
2333.184925,0.640654
2340.513386,0.515649
2341.013408,0.500023
2343.857289,0.546900
2344.497943,0.640654
2344.966714,0.468771
2345.591743,0.625029
2365.998927,0.500023
2382.952828,0.515649
2383.530980,0.578151
2383.984125,0.453146
2384.577903,0.593777
2466.675411,0.406269
2489.473329,0.437520
2489.926475,0.453146
2490.332743,0.406269
2490.801515,0.468771
2491.270286,0.468771
2491.707806,0.437520
2492.192204,0.484397
2505.645944,0.546900
2506.114716,0.468771
2506.552236,0.437520
2518.287148,0.484397
2518.755919,0.468771
2519.271568,0.515649
2538.084929,0.468771
2538.584952,0.500023
2539.084975,0.500023
2539.538121,0.453146
2540.006892,0.468771
2540.522541,0.515649
2541.022564,0.500023
2553.320002,0.515649
2553.788773,0.468771
2554.273170,0.484397
2554.773193,0.500023
2562.945442,0.421894
2563.461091,0.515649
2571.352077,0.468771
2571.836474,0.484397
2572.289620,0.453146
2572.820894,0.531274
2573.305291,0.484397
2573.836566,0.531274
2574.274086,0.437520
2574.836612,0.562526
2575.321009,0.484397
2575.836657,0.515649
2587.509067,0.515649
2587.993464,0.484397
2588.477861,0.484397
2588.962258,0.484397
2589.462281,0.500023
2589.946678,0.484397
2800.159426,0.453146
2800.565694,0.406269
2801.018840,0.453146
2812.847507,0.453146
2828.504473,0.500023
2829.020122,0.515649
2829.457642,0.437520
2830.020168,0.562526
2842.380109,0.531274
2842.895757,0.515649
2843.489534,0.593777
2861.334101,0.578151
2861.834124,0.500023
2862.349773,0.515649
2862.849796,0.500023
2863.349818,0.500023
2863.881093,0.531274
2864.381116,0.500023
2864.943641,0.562526
2865.474916,0.531274
2865.974939,0.500023
2866.506213,0.531274
2867.068739,0.562526
2867.600013,0.531274
2868.131287,0.531274
2868.678187,0.546900
2869.209462,0.531274
2869.756362,0.546900
2870.303262,0.546900
2870.850162,0.546900
2871.381436,0.531274
2871.943962,0.562526
2872.506488,0.562526
2873.053388,0.546900
2873.615913,0.562526
2874.178439,0.562526
2874.850345,0.671906
2875.490999,0.640654
2876.116028,0.625029
2876.694179,0.578151
2877.272331,0.578151
2877.897359,0.625029
2878.459885,0.562526
2878.975534,0.515649
2879.538059,0.562526
2880.038082,0.500023
2880.553731,0.515649
2881.100631,0.546900
2881.725660,0.625029
2882.288185,0.562526
2885.960228,0.703157
2886.694637,0.734409
2887.413420,0.718783
2928.509051,0.609403
2929.118454,0.609403
2929.743483,0.625029
2930.352885,0.609403
2931.024791,0.671906
2931.681071,0.656280
2932.306100,0.625029
2932.946754,0.640654
2933.649911,0.703157
2934.290566,0.640654
2934.962471,0.671906
2948.963112,0.671906
2949.619392,0.656280
2950.291298,0.671906
2950.869450,0.578151
2958.635430,0.671906
2961.979333,0.640654
2987.652383,0.562526
2988.168032,0.515649
2988.730558,0.562526
2989.293083,0.562526
2989.902486,0.609403
2990.449386,0.546900
2991.058789,0.609403
2991.590064,0.531274
2992.152589,0.562526
2992.683864,0.531274
2993.246389,0.562526
2993.793289,0.546900
2994.355815,0.562526
2994.918341,0.562526
2995.449615,0.531274
2996.074644,0.625029
2996.543415,0.468771
2997.121567,0.578151
2997.621590,0.500023
3004.450027,0.562526
3005.043804,0.593777
3005.637582,0.593777
3006.215733,0.578151
3006.778259,0.562526
3007.340785,0.562526
3007.918936,0.578151
3013.028545,0.578151
3013.575445,0.546900
3014.153596,0.578151
3014.716122,0.562526
3015.294274,0.578151
3015.872425,0.578151
3016.419325,0.546900
3016.966225,0.546900
3017.560002,0.593777
3018.122528,0.562526
3018.669428,0.546900
3019.263205,0.593777
3019.763228,0.500023
3020.310128,0.546900
3020.919531,0.609403
3021.403928,0.484397
3039.576635,0.578151
3040.092284,0.515649
3040.686061,0.593777
3049.561467,0.546900
3052.327219,0.562526
3052.967873,0.640654
3053.499147,0.531274
3054.155427,0.656280
3066.624748,0.578151
3067.171648,0.546900
3081.641061,0.593777
3095.704204,0.625029
3106.017176,0.609403
3106.767211,0.750034
3116.830171,0.562526
3117.423949,0.593777
3117.970849,0.546900
3118.595877,0.625029
3119.158403,0.562526
3119.611549,0.453146
3137.409238,0.625029
3137.971764,0.562526
3138.674921,0.703157
3139.456207,0.781286
3142.237584,0.546900
3142.878239,0.640654
3143.409513,0.531274
3144.097044,0.687531
3144.612693,0.515649
3145.253347,0.640654
3145.784622,0.531274
3146.472153,0.687531
3154.738157,0.578151
3155.410062,0.671906
3178.395489,0.640654
3178.989267,0.593777
3179.645547,0.656280
3180.161195,0.515649
3183.426970,0.609403
3184.145753,0.718783
3184.973916,0.828163
3192.349253,0.546900
3193.068036,0.718783
3196.521319,0.531274
3197.115096,0.593777
3197.661996,0.546900
3214.678400,0.609403
3221.694346,0.546900
3222.303749,0.609403
3222.881901,0.578151
3223.491304,0.609403
3224.116332,0.625029
3224.694484,0.578151
3225.257010,0.562526
3225.882038,0.625029
3226.413312,0.531274
3227.022715,0.609403
3227.600867,0.578151
3228.147767,0.546900
3234.226170,0.609403
3234.804322,0.578151
3235.413724,0.609403
3235.991876,0.578151
3236.570027,0.578151
3237.148179,0.578151
3237.726330,0.578151
3238.288856,0.562526
3238.867007,0.578151
3239.429533,0.562526
3301.494874,0.703157
3302.198031,0.703157
3302.885563,0.687531
3303.619972,0.734409
3304.370006,0.750034
3305.088789,0.718783
3305.838823,0.750034
3306.526355,0.687531
3307.260763,0.734409
3308.042049,0.781286
3308.792083,0.750034
3309.510866,0.718783
3310.307778,0.796911
3316.495561,0.734409
3317.229970,0.734409
3318.042507,0.812537
3318.886295,0.843789
3319.605078,0.718783
3320.417615,0.812537
3321.261404,0.843789
3321.980187,0.718783
3322.698970,0.718783
3323.449004,0.750034
3324.183413,0.734409
3324.870944,0.687531
3325.667856,0.796911
3326.558522,0.890666
3327.324182,0.765660
3328.167970,0.843789
3328.980507,0.812537
3329.761793,0.781286
3330.496202,0.734409
3331.261862,0.765660
3332.058773,0.796911
3332.793182,0.734409
3333.590093,0.796911
3334.496385,0.906291
3335.324548,0.828163
3336.152711,0.828163
3337.027751,0.875040
3337.871539,0.843789
3338.699702,0.828163
3339.559117,0.859414
3340.387280,0.828163
3341.184191,0.796911
3342.012354,0.828163
3342.824891,0.812537
3343.606177,0.781286
3344.449965,0.843789
3345.231251,0.781286
3346.012537,0.781286
3346.887577,0.875040
3347.684489,0.796911
3348.450149,0.765660
3349.278311,0.828163
3350.028346,0.750034
3350.762754,0.734409
3351.528414,0.765660
3352.278449,0.750034
3352.997232,0.718783
3353.809769,0.812537
3354.669183,0.859414
3355.419218,0.750034
3356.200503,0.781286
3356.997415,0.796911
3357.763075,0.765660
3364.638390,0.640654
3365.310295,0.671906
3365.982201,0.671906
3366.669733,0.687531
3367.326013,0.656280
3367.951041,0.625029
3368.576070,0.625029
3369.201098,0.625029
3369.841753,0.640654
3370.482407,0.640654
3371.123061,0.640654
3371.810593,0.687531
3372.545002,0.734409
3373.295036,0.750034
3373.966942,0.671906
3374.638847,0.671906
3375.326379,0.687531
3376.029536,0.703157
3376.732693,0.703157
3377.435850,0.703157
3378.185885,0.750034
3378.967170,0.781286
3379.685953,0.718783
3380.451613,0.765660
3381.248525,0.796911
3382.029811,0.781286
3382.811096,0.781286
3383.608008,0.796911
3408.687281,0.625029
3417.265799,0.593777
3417.875201,0.609403
3418.468979,0.593777
3419.078382,0.609403
3419.703410,0.625029
3420.359690,0.656280
3421.015970,0.656280
3421.672250,0.656280
3422.266027,0.593777
3422.875430,0.609403
3423.500459,0.625029
3424.125488,0.625029
3424.781768,0.656280
3425.453673,0.671906
3426.094328,0.640654
3426.750608,0.656280
3427.453765,0.703157
3428.156922,0.703157
3428.813202,0.656280
3525.473877,0.640654
3526.067654,0.593777
3526.692683,0.625029
3527.286460,0.593777
3527.942740,0.656280
3528.520891,0.578151
3529.145920,0.625029
3545.412290,0.765660
3593.039470,0.765660
3593.867633,0.828163
3594.539538,0.671906
3595.320824,0.781286
3629.228626,0.703157
3630.009912,0.781286
3630.713069,0.703157
3631.416226,0.703157
3637.494630,0.671906
3638.119658,0.625029
3638.807190,0.687531
3709.951071,0.703157
3835.675576,0.671906
3836.331856,0.656280
3837.003762,0.671906
3874.536730,0.703157
3875.318016,0.781286
3876.083676,0.765660
3876.802459,0.718783
3877.568119,0.765660
3878.380656,0.812537
3879.161942,0.781286
3879.927602,0.765660
3880.646385,0.718783
3881.443296,0.796911
3912.569721,0.625029
3934.211337,0.625029
3934.851991,0.640654
3935.492645,0.640654
3936.180177,0.687531
3936.867708,0.687531
3937.633368,0.765660
3938.430280,0.796911
3939.102185,0.671906
3939.805343,0.703157
3940.524126,0.718783
3941.196031,0.671906
3941.883563,0.687531
3942.477340,0.593777
3943.133620,0.656280
3943.758649,0.625029
3944.399303,0.640654
3945.086834,0.687531
3945.727489,0.640654
3953.384089,0.843789
3954.212252,0.828163
3955.009164,0.796911
3955.806075,0.796911
3971.166153,0.640654
3971.838059,0.671906
3972.494339,0.656280
3973.103742,0.609403
3973.744396,0.640654
3974.385051,0.640654
3975.025705,0.640654
4002.151947,0.640654
4002.808227,0.656280
4005.667732,0.593777
4006.277135,0.609403
4006.855287,0.578151
4007.464690,0.609403
4008.105344,0.640654
4008.808501,0.703157
4009.464781,0.656280
4016.324470,0.734409
4031.840806,0.750034
4032.622091,0.781286
4033.372126,0.750034
4034.012780,0.640654
4053.169907,0.734409
4053.857439,0.687531
4054.638724,0.781286
4055.420010,0.781286
4056.091916,0.671906
4056.841950,0.750034
4057.576359,0.734409
4058.248265,0.671906
4058.982673,0.734409
4059.701456,0.718783
4060.357736,0.656280
4061.107770,0.750034
4061.764050,0.656280
4095.687478,0.796911
4096.500015,0.812537
4097.265676,0.765660
4098.078213,0.812537
4104.328499,0.750034
4105.156662,0.828163
4105.984825,0.828163
4106.766110,0.781286
4107.594273,0.828163
4108.313056,0.718783
4109.109968,0.796911
4109.922505,0.812537
4110.719416,0.796911
4111.578831,0.859414
4112.219485,0.640654
4112.907017,0.687531
4113.641425,0.734409
4114.360208,0.718783
4115.032114,0.671906
4115.750897,0.718783
4116.422802,0.671906
4117.063457,0.640654
4123.298117,0.812537
4165.893817,0.734409
4166.565723,0.671906
4167.268880,0.703157
4168.034540,0.765660
4168.690820,0.656280
4169.331474,0.640654
4170.034631,0.703157
4175.784895,0.609403
4204.864351,0.671906
4248.319465,0.687531
4248.928868,0.609403
4267.695352,0.593777
4268.367258,0.671906
4268.992286,0.625029
4269.570438,0.578151
4276.477004,0.765660
4277.148910,0.671906
4277.930195,0.781286
4278.680230,0.750034
4279.383387,0.703157
4280.055293,0.671906
4280.758450,0.703157
4281.524110,0.765660
4282.227267,0.703157
4283.008553,0.781286
4283.680459,0.671906
4284.430493,0.750034
4285.196153,0.765660
4285.977439,0.781286
4286.789976,0.812537
4287.540010,0.750034
4288.290045,0.750034
4289.008827,0.718783
4289.743236,0.734409
4384.372568,0.750034
4385.075725,0.703157
4385.903888,0.828163
4386.716425,0.812537
4387.544588,0.828163
4388.357125,0.812537
4389.091534,0.734409
4389.779065,0.687531
4390.497848,0.718783
4391.247882,0.750034
4391.982291,0.734409
4392.669822,0.687531
4393.419857,0.750034
4394.232394,0.812537
4454.782040,0.625029
4455.641455,0.859414
4456.313360,0.671906
4468.563921,0.640654
4469.204576,0.640654
4469.829604,0.625029
4470.439007,0.609403
4471.126539,0.687531
4471.751567,0.625029
4472.376596,0.625029
4473.032876,0.656280
4473.626653,0.593777
4474.251682,0.625029
4474.829833,0.578151
4495.205766,0.562526
4495.737040,0.531274
4496.237063,0.500023
4496.768337,0.531274
4497.346489,0.578151
4553.536561,0.578151
4554.083461,0.546900
4615.445645,0.593777
4615.961293,0.515649
4616.539445,0.578151
4622.789731,0.656280
4627.368065,0.515649
4627.977468,0.609403
4628.555620,0.578151
4639.352989,0.656280
4645.181381,0.453146
4688.511489,0.640654
4693.589847,0.718783
4694.167998,0.578151
4694.808652,0.640654
4695.464932,0.656280
4696.074335,0.609403
4696.683738,0.609403
4697.246264,0.562526
4697.933795,0.687531
4701.433956,0.562526
4701.887101,0.453146
4702.371499,0.484397
4709.840590,0.625029
4725.966329,0.625029
4726.606983,0.640654
4727.091380,0.484397
4752.764430,0.546900
4753.311330,0.546900
4765.577517,0.546900
4766.202545,0.625029
4766.686943,0.484397
4767.311971,0.625029
4773.312246,0.671906
4777.828078,0.531274
4778.359352,0.531274
4778.906252,0.546900
4784.312749,0.546900
4784.844024,0.531274
4785.422175,0.578151
4785.984701,0.562526
4786.500350,0.515649
4787.047250,0.546900
4787.531647,0.484397
4788.109798,0.578151
4788.672324,0.562526
4789.187973,0.515649
4789.781750,0.593777
4790.281773,0.500023
4793.125653,0.609403
4793.594424,0.468771
4794.156950,0.562526
4794.703850,0.546900
4795.219499,0.515649
4795.797650,0.578151
4796.344550,0.546900
4796.875824,0.531274
4797.422724,0.546900
4797.875870,0.453146
4798.516525,0.640654
4798.969670,0.453146
4799.594699,0.625029
4800.157225,0.562526
4805.329336,0.531274
4805.876236,0.546900
4806.423136,0.546900
4807.032539,0.609403
4807.548188,0.515649
4808.141965,0.593777
4808.704491,0.562526
4809.267017,0.562526
4809.845168,0.578151
4810.407694,0.562526
4811.001471,0.593777
4811.626500,0.625029
4812.267154,0.640654
4812.892183,0.625029
4813.626591,0.734409
4814.157866,0.531274
4814.923526,0.765660
4817.798657,0.625029
4818.376809,0.578151
4822.142606,0.609403
4822.720757,0.578151
4823.298909,0.578151
4823.892686,0.593777
4824.548966,0.656280
4825.142743,0.593777
4829.877335,0.687531
4830.549241,0.671906
4831.236772,0.687531
4831.955555,0.718783
4832.674338,0.718783
4833.393121,0.718783
4834.111904,0.718783
4834.799435,0.687531
4835.502593,0.703157
4836.190124,0.687531
4836.846404,0.656280
4837.487058,0.640654
4838.112087,0.625029
4838.752741,0.640654
4839.315267,0.562526
4843.424830,0.640654
4844.159239,0.734409
4844.799893,0.640654
4845.487425,0.687531
4846.143705,0.656280
4846.846862,0.703157
4854.612842,0.578151
4858.284885,0.718783
4859.019294,0.734409
4859.769328,0.750034
4860.409983,0.640654
4861.191268,0.781286
4861.847548,0.656280
4862.488203,0.640654
4863.081980,0.593777
4863.738260,0.656280
4864.394540,0.656280
4871.004218,0.718783
4871.613621,0.609403
4872.410532,0.796911
4873.129315,0.718783
4873.894975,0.765660
4877.942035,0.640654
4878.567064,0.625029
4879.192092,0.625029
4879.817121,0.625029
4880.442150,0.625029
4881.020301,0.578151
4881.614078,0.593777
4882.207855,0.593777
4882.832884,0.625029
4883.395410,0.562526
4884.082941,0.687531
4884.692344,0.609403
4885.473630,0.781286
4886.161161,0.687531
4886.942447,0.781286
4887.739359,0.796911
4888.489393,0.750034
4889.286304,0.796911
4890.051965,0.765660
4890.801999,0.750034
4891.567659,0.765660
4892.286442,0.718783
4892.989599,0.703157
4893.645879,0.656280
4894.208405,0.562526
4894.833433,0.625029
4895.380333,0.546900
4896.020988,0.640654
4896.677268,0.656280
4897.239794,0.562526
4897.927325,0.687531
4898.489851,0.562526
4899.114879,0.625029
4899.693031,0.578151
4900.318059,0.625029
4900.927462,0.609403
4901.521240,0.593777
4902.130642,0.609403
4905.427668,0.546900
4905.927691,0.500023
4906.490217,0.562526
4923.506621,0.656280
4924.084772,0.578151
4924.631672,0.546900
4925.225449,0.593777
4925.803601,0.578151
4926.413004,0.609403
4927.069284,0.656280
4927.678687,0.609403
4950.414102,0.750034
4951.164137,0.750034
4964.571000,0.625029
4965.211655,0.640654
4965.774180,0.562526
4966.367958,0.593777
4966.992986,0.625029
4967.586763,0.593777
4968.196166,0.609403
4968.836821,0.640654
4969.461849,0.625029
4970.086878,0.625029
4970.727532,0.640654
4971.383812,0.656280
4972.024467,0.640654
4972.633869,0.609403
4973.258898,0.625029
4973.852675,0.593777
4974.446452,0.593777
4974.993352,0.546900
4975.571504,0.578151
4976.149655,0.578151
4976.743433,0.593777
4977.227830,0.484397
4977.915361,0.687531
4978.556015,0.640654
4979.306050,0.750034
4994.556748,0.843789
4995.306782,0.750034
4996.072442,0.765660
5017.573427,0.562526
5025.730050,0.718783
5026.339453,0.609403
5026.948856,0.609403
5027.558259,0.609403
5028.183287,0.625029
5028.777065,0.593777
5029.511473,0.734409
5037.324331,0.609403
5037.918108,0.593777
5038.480634,0.562526
5039.183791,0.703157
5039.793194,0.609403
5040.574480,0.781286
5054.840758,0.625029
5100.405343,0.546900
5147.782512,0.734409
5148.516921,0.734409
5149.220078,0.703157
5149.845106,0.625029
5150.532638,0.687531
5178.768305,0.609403
5179.377708,0.609403
5179.971485,0.593777
5199.237992,0.578151
5200.003652,0.765660
5206.894593,0.671906
5211.769816,0.750034
5251.756021,0.687531
5252.459179,0.703157
5259.396996,0.671906
5266.475445,0.796911
5267.194228,0.718783
5268.006765,0.812537
5274.585191,0.656280
5275.428980,0.843789
5305.820997,0.796911
5338.853759,0.625029
5339.510039,0.656280
5340.150693,0.640654
5353.807568,0.687531
5354.573228,0.765660
5355.338888,0.765660
5356.104548,0.765660
5356.776454,0.671906
5357.448360,0.671906
5358.026511,0.578151
5358.651540,0.625029
5359.354697,0.703157
5360.135983,0.781286
5360.901643,0.765660
5361.667303,0.765660
5362.354835,0.687531
5448.780666,0.531274
5449.452571,0.671906
5468.625324,0.875040
5469.484738,0.859414
5470.391030,0.906291
5471.219193,0.828163
5472.000478,0.781286
5472.844267,0.843789
5473.656804,0.812537
5474.469341,0.812537
5475.203750,0.734409
5475.844404,0.640654
5476.516310,0.671906
5477.344473,0.828163
5478.219513,0.875040
5479.000799,0.781286
5479.891464,0.890666
5480.766505,0.875040
5481.688422,0.921917
5482.547836,0.859414
5483.391625,0.843789
5484.219788,0.828163
5485.001073,0.781286
5485.704231,0.703157
5486.344885,0.640654
5487.032416,0.687531
5588.396431,0.734409
5589.271471,0.875040
5590.084008,0.812537
5620.116634,0.640654
5620.726037,0.609403
5651.539947,0.656280
5652.180601,0.640654
5652.868133,0.687531
5653.571290,0.703157
5654.211944,0.640654
5654.915101,0.703157
5665.149945,0.703157
5665.712471,0.562526
5666.353125,0.640654
5667.087533,0.734409
5671.478359,0.828163
5672.212768,0.734409
5673.025305,0.812537
5716.042900,0.812537
5755.685339,0.656280
5756.435374,0.750034
5757.247911,0.812537
5758.091699,0.843789
5758.841734,0.750034
5764.201354,0.781286
5764.873260,0.671906
5765.513914,0.640654
5766.123317,0.609403
5798.656056,0.703157
5815.672460,0.625029
5816.469372,0.796911
5817.250657,0.781286
5818.000692,0.750034
5818.813229,0.812537
5819.688269,0.875040
5820.360175,0.671906
5821.047706,0.687531
5821.813366,0.765660
5822.469646,0.656280
5823.141552,0.671906
5823.813458,0.671906
5824.516615,0.703157
5825.157269,0.640654
5833.251390,0.781286
5833.907670,0.656280
5834.642078,0.734409
5855.111765,0.718783
5855.799297,0.687531
5856.439951,0.640654
5857.096231,0.656280
5857.815014,0.718783
5858.455668,0.640654
5859.033820,0.578151
5859.815106,0.781286
5898.426248,0.812537
5906.426614,0.843789
5912.583146,0.828163
5913.348806,0.765660
5914.114466,0.765660
5914.848875,0.734409
5915.520781,0.671906
5916.161435,0.640654
5916.786463,0.625029
5917.489621,0.703157
5922.271090,0.890666
5923.146130,0.875040
5923.896164,0.750034
5924.786830,0.890666
5925.646244,0.859414
5973.164044,0.671906
5973.835950,0.671906
5974.523481,0.687531
5983.570770,0.765660
5984.227050,0.656280
5984.914582,0.687531
5985.602113,0.687531
5986.258393,0.656280
5986.899047,0.640654
5987.539702,0.640654
5988.180356,0.640654
5988.852262,0.671906
5989.539793,0.687531
5990.274202,0.734409
6047.604951,0.609403
6048.276857,0.671906
6048.901886,0.625029
6056.761620,0.765660
6064.074455,0.781286
6071.527921,0.828163
6100.982394,0.890666
6101.669926,0.687531
6102.451212,0.781286
6103.185620,0.734409
6103.888777,0.703157
6104.545058,0.656280
6105.248215,0.703157
6105.873243,0.625029
6125.624147,0.828163
6129.405571,0.875040
6130.264985,0.859414
6131.093148,0.828163
6131.905685,0.812537
6132.718222,0.812537
6133.468256,0.750034
6134.187039,0.718783
6134.843319,0.656280
6154.156703,0.921917
6203.705847,0.843789
6211.143687,0.843789
6224.159908,0.796911
6224.894317,0.734409
6225.613100,0.718783
6226.316257,0.703157
6227.019414,0.703157
6227.706945,0.687531
6228.378851,0.671906
6229.066383,0.687531
6229.816417,0.750034
6230.566451,0.750034
6231.300860,0.734409
6232.097771,0.796911
6232.879057,0.781286
6233.675969,0.796911
6234.472880,0.796911
6235.222914,0.750034
6235.863569,0.640654
6236.707357,0.843789
6237.504269,0.796911
6238.269929,0.765660
6238.910583,0.640654
6239.660618,0.750034
6240.301272,0.640654
6241.020055,0.718783
6241.801341,0.781286
6242.598252,0.796911
6243.270158,0.671906
6250.754875,0.640654
6251.411155,0.656280
6252.051810,0.640654
6252.692464,0.640654
6253.473750,0.781286
6254.270661,0.796911
6255.051947,0.781286
6255.786356,0.734409
6256.614519,0.828163
6257.395804,0.781286
6258.145839,0.750034
6258.848996,0.703157
6259.599030,0.750034
6260.411567,0.812537
6261.192853,0.781286
6261.942888,0.750034
6262.864805,0.921917
6263.724219,0.859414
6264.521131,0.796911
6265.380545,0.859414
6266.224334,0.843789
6267.068122,0.843789
6267.865034,0.796911
6268.693197,0.828163
6269.505734,0.812537
6270.271394,0.765660
6270.990177,0.718783
6271.755837,0.765660
6272.584000,0.828163
6273.334034,0.750034
6274.177823,0.843789
6274.943483,0.765660
6275.646640,0.703157
6276.365423,0.718783
6277.131083,0.765660
6278.053000,0.921917
6278.865537,0.812537
6279.615571,0.750034
6280.506237,0.890666
6281.240646,0.734409
6281.975055,0.734409
6282.803217,0.828163
6283.678257,0.875040
6284.522046,0.843789
6285.240829,0.718783
6292.975558,0.671906
6293.600587,0.625029
6294.272492,0.671906
6295.022527,0.750034
6295.835064,0.812537
6296.631975,0.796911
6297.397635,0.765660
6298.163296,0.765660
6298.913330,0.750034
6299.757118,0.843789
6300.647784,0.890666
6301.522824,0.875040
6302.288484,0.765660
6303.085396,0.796911
6303.835430,0.750034
6304.679219,0.843789
6305.335499,0.656280
6306.069907,0.734409
6306.866819,0.796911
6307.741859,0.875040
6308.538770,0.796911
6309.335682,0.796911
6314.929688,0.734409
6315.679722,0.750034
6316.461008,0.781286
6317.242294,0.781286
6318.007954,0.765660
6318.757988,0.750034
6319.429894,0.671906
6324.945771,0.671906
6325.711432,0.765660
6326.367712,0.656280
6326.961489,0.593777
6327.727149,0.765660
6328.383429,0.656280
6329.086586,0.703157
6329.805369,0.718783
6330.555403,0.750034
6338.649524,0.875040
6339.508938,0.859414
6340.383978,0.875040
6341.087135,0.703157
6341.852795,0.765660
6342.665333,0.812537
6343.446618,0.781286
6344.196653,0.750034
6344.852933,0.656280
6345.524838,0.671906
6346.243621,0.718783
6346.868650,0.625029
6358.259796,0.718783
6358.978579,0.718783
6359.634859,0.656280
6360.322391,0.687531
6360.994297,0.671906
6361.744331,0.750034
6362.541242,0.796911
6363.197522,0.656280
6374.791803,0.765660
6375.479335,0.687531
6376.276246,0.796911
6377.229415,0.953169
6378.120080,0.890666
6378.963869,0.843789
6379.870161,0.906291
6380.682698,0.812537
6381.448358,0.765660
6382.151515,0.703157
6382.792169,0.640654
6383.495327,0.703157
6384.276612,0.781286
6385.120401,0.843789
6386.026692,0.906291
6386.932984,0.906291
6387.808024,0.875040
6388.792444,0.984420
6389.604981,0.812537
6390.448770,0.843789
6391.276933,0.828163
6392.136347,0.859414
6392.870756,0.734409
6393.667667,0.796911
6394.339573,0.671906
6395.105233,0.765660
6395.730262,0.625029
6396.558424,0.828163
6397.449090,0.890666
6398.277253,0.828163
6399.105416,0.828163
6399.917953,0.812537
6400.636736,0.718783
6401.324268,0.687531
6402.027425,0.703157
6402.777459,0.750034
6403.605622,0.828163
6404.433785,0.828163
6405.261948,0.828163
6406.027608,0.765660
6406.777642,0.750034
6407.590179,0.812537
6408.371465,0.781286
6409.121500,0.750034
6409.934037,0.812537
6410.762200,0.828163
6411.605988,0.843789
6412.402900,0.796911
6413.074805,0.671906
6413.793588,0.718783
6414.465494,0.671906
6415.153026,0.687531
6415.809306,0.656280
6416.496837,0.687531
6417.215620,0.718783
6423.872175,0.875040
6424.715963,0.843789
6425.622255,0.906291
6426.372289,0.750034
6427.153575,0.781286
6437.466547,0.765660
6438.279084,0.812537
6439.075996,0.796911
6439.919784,0.843789
6440.779199,0.859414
6441.654239,0.875040
6442.498027,0.843789
6443.326190,0.828163
6444.154353,0.828163
6444.966890,0.812537
6445.779428,0.812537
6446.607590,0.828163
6447.248245,0.640654
6447.935776,0.687531
6448.607682,0.671906
6463.827129,0.625029
6464.327152,0.500023
6464.827174,0.500023
6478.624681,0.625029
6479.249710,0.625029
6479.921615,0.671906
6482.609238,0.640654
6483.281144,0.671906
6484.031178,0.750034
6484.640581,0.609403
6487.531339,0.500023
6506.688466,0.765660
6507.375997,0.687531
6510.844906,0.703157
6511.469934,0.625029
6512.110589,0.640654
6512.860623,0.750034
6573.613404,0.453146
6583.191967,0.625029
6583.738867,0.546900
6604.646074,0.703157
6605.255477,0.609403
6629.865979,0.609403
6630.397253,0.531274
6695.228346,0.625029
6708.713338,0.390643
6709.182109,0.468771
6719.041936,0.625029
6719.698216,0.656280
6720.213864,0.515649
6790.576460,0.890666
6807.686618,0.515649
6808.327273,0.640654
6808.842921,0.515649
6809.436698,0.593777
6809.967973,0.531274
6810.499247,0.531274
6896.253172,0.500023
6971.334734,0.625029
6971.881634,0.546900
6972.553540,0.671906
6981.303941,0.640654
7025.712223,0.625029
7091.496485,0.625029
7111.653657,0.593777
7112.231809,0.578151
7112.809960,0.578151
7121.435355,0.687531
7241.565854,0.703157
7242.269011,0.703157
7243.034671,0.765660
7243.722202,0.687531
7252.269469,0.734409
7253.035129,0.765660
7253.785163,0.750034
7254.535197,0.750034
7255.222729,0.687531
7255.957137,0.734409
7256.769675,0.812537
7257.488457,0.718783
7258.254117,0.765660
7259.051029,0.796911
7259.879192,0.828163
7260.660478,0.781286
7261.504266,0.843789
7262.238675,0.734409
7263.098089,0.859414
7263.926252,0.828163
7264.645035,0.718783
7291.724400,0.718783
7292.474434,0.750034
7293.271345,0.796911
7294.083883,0.812537
7294.771414,0.687531
7295.568326,0.796911
7296.287108,0.718783
7297.099646,0.812537
7297.865306,0.765660
7298.537211,0.671906
7299.318497,0.781286
7300.099783,0.781286
7301.006074,0.906291
7301.959243,0.953169
7302.959289,1.000046
7307.772009,0.671906
7308.553295,0.781286
7309.318955,0.765660
7310.131492,0.812537
7311.006532,0.875040
7311.881572,0.875040
7312.631607,0.750034
7313.412892,0.781286
7314.178552,0.765660
7314.787955,0.609403
7344.101797,0.562526
7344.773703,0.671906
7345.445609,0.671906
7346.195643,0.750034
7347.008180,0.812537
7347.836343,0.828163
7348.586377,0.750034
7349.398915,0.812537
7350.148949,0.750034
7350.883358,0.734409
7351.617766,0.734409
7352.461555,0.843789
7353.289718,0.828163
7354.086629,0.796911
7354.914792,0.828163
7355.789832,0.875040
7356.633621,0.843789
7357.430532,0.796911
7358.321198,0.890666
7359.133735,0.812537
7359.977524,0.843789
7360.836938,0.859414
7361.665101,0.828163
7362.540141,0.875040
7363.305801,0.765660
7364.165215,0.859414
7365.009004,0.843789
7365.759038,0.750034
7366.602827,0.843789
7367.399739,0.796911
7368.165399,0.765660
7368.993562,0.828163
7369.837350,0.843789
7370.649887,0.812537
7371.446799,0.796911
7372.306213,0.859414
7373.134376,0.828163
7373.915662,0.781286
7374.728199,0.812537
7375.478233,0.750034
7376.165765,0.687531
7376.775168,0.609403
7377.431448,0.656280
7378.118979,0.687531
7378.884639,0.765660
7379.775305,0.890666
7380.587842,0.812537
7381.400379,0.812537
7382.259794,0.859414
7383.103582,0.843789
7383.853617,0.750034
7384.634902,0.781286
7385.447440,0.812537
7386.244351,0.796911
7386.994385,0.750034
7387.885051,0.890666
7388.791343,0.906291
7389.619506,0.828163
7390.525797,0.906291
7391.400837,0.875040
7392.229000,0.828163
7393.088414,0.859414
7393.932203,0.843789
7394.791617,0.859414
7395.572903,0.781286
7396.463569,0.890666
7397.182352,0.718783
7397.963638,0.781286
7398.807426,0.843789
7399.635589,0.828163
7415.136299,0.828163
7415.980087,0.843789
7416.776999,0.796911
7417.605162,0.828163
7418.417699,0.812537
7419.214610,0.796911
7419.933393,0.718783
7420.620925,0.687531
7421.339708,0.718783
7422.230373,0.890666
7423.042911,0.812537
7438.246732,0.859414
7439.090520,0.843789
7440.059314,0.968794
7440.762472,0.703157
7441.559383,0.796911
7442.340669,0.781286
7443.153206,0.812537
7443.981369,0.828163
7444.840783,0.859414
7445.700198,0.859414
7446.559612,0.859414
7447.434652,0.875040
7448.309692,0.875040
7449.106604,0.796911
7450.012895,0.906291
7450.887935,0.875040
7451.684847,0.796911
7452.528635,0.843789
7453.403675,0.875040
7454.216213,0.812537
7455.044375,0.828163
7455.903790,0.859414
7456.731953,0.828163
7457.513238,0.781286
7458.372653,0.859414
7459.216441,0.843789
7459.966476,0.750034
7460.841516,0.875040
7461.544673,0.703157
7513.812690,0.921917
7514.593976,0.781286
7515.453390,0.859414
7516.312805,0.859414
7517.187845,0.875040
7518.000382,0.812537
7518.844171,0.843789
7519.734836,0.890666
7520.562999,0.828163
7521.391162,0.828163
7522.266202,0.875040
7523.156868,0.890666
7524.016282,0.859414
7524.875697,0.859414
7525.735111,0.859414
7526.563274,0.828163
7527.344560,0.781286
7528.188348,0.843789
7529.032137,0.843789
7529.907177,0.875040
7530.719714,0.812537
7531.501000,0.781286
7532.422917,0.921917
7533.188577,0.765660
7533.922986,0.734409
7541.907726,0.875040
7542.751515,0.843789
7543.610929,0.859414
7544.485969,0.875040
7545.345384,0.859414
7546.173547,0.828163
7547.048587,0.875040
7547.939252,0.890666
7548.783041,0.843789
7549.611204,0.828163
7550.533121,0.921917
7551.283155,0.750034
7552.080067,0.796911
7552.923856,0.843789
7553.767644,0.843789
7554.548930,0.781286
7555.392719,0.843789
7556.252133,0.859414
7557.049044,0.796911
7557.908459,0.859414
7558.689744,0.781286
7559.424153,0.734409
7560.174187,0.750034
7561.033602,0.859414
7561.861765,0.828163
7562.564922,0.703157
7563.408710,0.843789
7564.315002,0.906291
7565.205668,0.890666
7566.018205,0.812537
7566.846368,0.828163
7567.705782,0.859414
7568.487068,0.781286
7569.299605,0.812537
7570.096517,0.796911
7570.940305,0.843789
7623.302077,0.765660
7624.130240,0.828163
7624.974029,0.843789
7625.770940,0.796911
7626.442846,0.671906
7627.161629,0.718783
7627.864786,0.703157
7628.599195,0.734409
7629.505486,0.906291
7630.458655,0.953169
7631.318069,0.859414
7636.490181,0.796911
7637.255841,0.765660
7637.990250,0.734409
7638.724658,0.734409
7639.459067,0.734409
7640.193475,0.734409
7640.927884,0.734409
7641.756047,0.828163
7642.521707,0.765660
7643.271741,0.750034
7644.178033,0.906291
7645.037447,0.859414
7645.849984,0.812537
7646.725024,0.875040
7704.946440,0.890666
7705.758977,0.812537
7706.665268,0.906291
7707.462180,0.796911
7708.212214,0.750034
7708.837243,0.625029
7709.634154,0.796911
7730.150718,0.687531
7730.900753,0.750034
7731.635161,0.734409
7791.512902,0.906291
7832.983551,0.921917
7833.764837,0.781286
7834.639877,0.875040
7835.452414,0.812537
7839.233837,0.875040
7839.999497,0.765660
7840.702654,0.703157
7871.516565,0.843789
7872.407230,0.890666
7879.876322,0.828163
7880.735737,0.859414
7881.517022,0.781286
7882.345185,0.828163
7927.956648,0.828163
7943.472983,0.937543
7944.379275,0.906291
7945.223063,0.843789
7946.129355,0.906291
7947.051272,0.921917
7958.411167,0.953169
7959.317459,0.906291
7960.286253,0.968794
7961.255048,0.968794
7962.176965,0.921917
7963.130133,0.953169
7964.020799,0.890666
7964.927091,0.906291
7965.849008,0.921917
7966.770925,0.921917
7967.692842,0.921917
7968.661637,0.968794
7969.630431,0.968794
7970.505471,0.875040
7971.536768,1.031297
7972.364931,0.828163
7986.990601,0.906291
7987.881266,0.890666
7997.912976,0.859414
7998.725513,0.812537
7999.616179,0.890666
8000.538096,0.921917
8001.381884,0.843789
8002.194422,0.812537
8003.069462,0.875040
8003.960127,0.890666
8004.835167,0.875040
8005.647705,0.812537
8006.507119,0.859414
8007.366533,0.859414
8008.257199,0.890666
8009.054111,0.796911
8009.882273,0.828163
8010.726062,0.843789
8011.569851,0.843789
8012.335511,0.765660
8013.132422,0.796911
8013.991837,0.859414
8014.804374,0.812537
8015.538782,0.734409
8016.351320,0.812537
8017.273237,0.921917
8018.054523,0.781286
8018.851434,0.796911
8019.663971,0.812537
8020.585888,0.921917
8021.460928,0.875040
8022.257840,0.796911
8023.070377,0.812537
8023.898540,0.828163
8024.726703,0.828163
8025.523614,0.796911
8026.367403,0.843789
8027.273695,0.906291
8028.070606,0.796911
8028.820640,0.750034
8029.633178,0.812537
8030.461340,0.828163
8031.164498,0.703157
8031.914532,0.750034
8032.570812,0.656280
8033.227092,0.656280
8033.961501,0.734409
8034.727161,0.765660
8066.166100,0.890666
8066.931760,0.765660
8067.822426,0.890666
8068.744343,0.921917
8069.603757,0.859414
8070.494423,0.890666
8071.416340,0.921917
8072.322632,0.906291
8073.135169,0.812537
8090.776601,0.906291
8091.573513,0.796911
8092.432927,0.859414
8093.292341,0.859414
8094.167382,0.875040
8094.995544,0.828163
8110.168114,0.750034
8110.980651,0.812537
8111.871317,0.890666
8112.652603,0.781286
8113.496391,0.843789
8114.308928,0.812537
8115.183969,0.875040
8116.090260,0.906291
8116.871546,0.781286
8117.746586,0.875040
8118.606000,0.859414
8119.434163,0.828163
8120.293577,0.859414
8121.152992,0.859414
8139.935102,0.875040
8140.763264,0.828163
8141.638304,0.875040
8142.497719,0.859414
8143.325882,0.828163
8144.200922,0.875040
8145.091588,0.890666
8145.951002,0.859414
8146.763539,0.812537
8147.607328,0.843789
8148.466742,0.859414
8149.216776,0.750034
8150.091816,0.875040
8150.998108,0.906291
8151.810645,0.812537
8152.654434,0.843789
8153.607602,0.953169
8154.451391,0.843789
8155.310805,0.859414
8156.217097,0.906291
8157.139014,0.921917
8158.060931,0.921917
8158.873468,0.812537
8159.686006,0.812537
8160.529794,0.843789
8161.311080,0.781286
8162.092366,0.781286
8163.045534,0.953169
8163.983077,0.937543
8164.858117,0.875040
8165.811286,0.953169
8166.733203,0.921917
8167.592618,0.859414
8168.498909,0.906291
8169.420826,0.921917
8170.295866,0.875040
8171.186532,0.890666
8172.108449,0.921917
8172.967864,0.859414
8173.842904,0.875040
8174.780447,0.937543
8175.639861,0.859414
8176.546152,0.906291
8177.483695,0.937543
8178.421238,0.937543
8179.280653,0.859414
8180.186944,0.906291
8181.093235,0.906291
8181.874521,0.781286
8182.671433,0.796911
8183.577724,0.906291
8184.327759,0.750034
8185.062167,0.734409
8185.968459,0.906291
8186.921627,0.953169
8200.906642,0.656280
8201.547297,0.640654
8202.187951,0.640654
8202.812980,0.625029
8203.453634,0.640654
8204.172417,0.718783
8204.922451,0.750034
8205.594357,0.671906
8206.266263,0.671906
8206.985046,0.718783
8207.797583,0.812537
8208.641371,0.843789
8209.438283,0.796911
8210.157066,0.718783
8210.860223,0.703157
8211.688386,0.828163
8212.485297,0.796911
8213.204080,0.718783
8213.985366,0.781286
8214.954160,0.968794
8215.844826,0.890666
8216.626112,0.781286
8217.376146,0.750034
8218.266812,0.890666
8219.141852,0.875040
8219.891886,0.750034
8220.735675,0.843789
8221.548212,0.812537
8222.251369,0.703157
8223.001404,0.750034
8223.673310,0.671906
8224.407718,0.734409
8225.157753,0.750034
8225.845284,0.687531
8234.501930,0.859414
8235.298842,0.796911
8236.048876,0.750034
8236.861413,0.812537
8237.736453,0.875040
8238.486488,0.750034
8239.299025,0.812537
8240.236568,0.937543
8241.127234,0.890666
8241.877268,0.750034
8242.642928,0.765660
8243.439839,0.796911
8244.174248,0.734409
8244.955534,0.781286
8245.955580,1.000046
8246.830620,0.875040
8247.643157,0.812537
8248.533823,0.890666
8249.471365,0.937543
8250.315154,0.843789
8251.158943,0.843789
8252.018357,0.859414
8252.830894,0.812537
8253.580929,0.750034
8254.424717,0.843789
8255.206003,0.781286
8255.909160,0.703157
8256.706072,0.796911
8257.643615,0.937543
8258.487403,0.843789
8259.440572,0.953169
8260.362489,0.921917
8261.253155,0.890666
8262.128195,0.875040
8263.050112,0.921917
8263.925152,0.875040
8264.690812,0.765660
8265.456472,0.765660
8266.206506,0.750034
8267.190927,0.984420
8268.097218,0.906291
8268.894130,0.796911
8269.722292,0.828163
8270.612958,0.890666
8271.534875,0.921917
8272.347413,0.812537
8307.036500,0.843789
8307.927166,0.890666
8308.833458,0.906291
8309.677246,0.843789
8310.489784,0.812537
8311.349198,0.859414
8312.333618,0.984420
8313.068027,0.734409
8313.927441,0.859414
8314.849358,0.921917
8315.646270,0.796911
8316.490058,0.843789
8317.365098,0.875040
8318.224513,0.859414
8319.083927,0.859414
8329.350022,0.906291
8330.303190,0.953169
8331.209482,0.906291
8332.022019,0.812537
8364.867273,0.890666
8365.789190,0.921917
8369.367479,0.687531
8370.148764,0.781286
8371.008179,0.859414
8371.773839,0.765660
8372.492622,0.718783
8373.398913,0.906291
8374.273953,0.875040
8375.055239,0.781286
8375.899028,0.843789
8376.789693,0.890666
8377.633482,0.843789
8378.414768,0.781286
8379.227305,0.812537
8380.117971,0.890666
8380.946134,0.828163
8381.758671,0.812537
8382.633711,0.875040
8383.540002,0.906291
8384.368165,0.828163
8385.258831,0.890666
8402.228358,0.875040
8403.040895,0.812537
8403.884684,0.843789
8404.806601,0.921917
8405.712892,0.906291
8406.509804,0.796911
8407.400470,0.890666
8408.275510,0.875040
8409.041170,0.765660
8409.916210,0.875040
8410.744373,0.828163
8411.463156,0.718783
8412.385073,0.921917
8413.291364,0.906291
8414.088276,0.796911
8424.995025,0.968794
8442.495826,0.546900
8443.120855,0.625029
8486.513466,0.625029
8510.186424,0.656280
8510.827079,0.640654
8511.373979,0.546900
8512.030259,0.656280
8731.665313,0.687531
8732.384096,0.718783
8733.024750,0.640654
8733.790410,0.765660
8747.666045,0.734409
8751.009948,0.703157
8751.713106,0.703157
8752.525643,0.812537
8753.338180,0.812537
8818.059893,0.671906
8855.577235,0.671906
8856.264767,0.687531
8857.139807,0.875040
8857.827338,0.687531
8858.561747,0.734409
8859.296155,0.734409
8890.891352,0.718783
8891.735140,0.843789
8892.516426,0.781286
8893.282086,0.765660
8894.172752,0.890666
8895.047792,0.875040
8895.891581,0.843789
8896.672866,0.781286
8897.547906,0.875040
8898.469824,0.921917
8899.344864,0.875040
8900.157401,0.812537
8900.985564,0.828163
8901.923107,0.937543
8902.798147,0.875040
8903.704438,0.906291
8904.516975,0.812537
8905.376390,0.859414
8906.313933,0.937543
8907.235850,0.921917
8908.110890,0.875040
8908.954679,0.843789
8909.860970,0.906291
8910.798513,0.937543
8911.736056,0.937543
8912.626722,0.890666
8913.470510,0.843789
8914.361176,0.890666
8915.329970,0.968794
8916.283139,0.953169
8917.236308,0.953169
8918.111348,0.875040
8918.955136,0.843789
8919.877053,0.921917
8920.814596,0.937543
8921.767765,0.953169
8922.658431,0.890666
8923.502219,0.843789
8924.408511,0.906291
8925.408557,1.000046
8926.377351,0.968794
8927.299268,0.921917
8928.158683,0.859414
8928.939968,0.781286
8929.815008,0.875040
8930.736926,0.921917
8931.690094,0.953169
8932.549509,0.859414
8933.408923,0.859414
8934.362092,0.953169
8935.346512,0.984420
8936.299680,0.953169
8937.174720,0.875040
8938.081012,0.906291
8939.034180,0.953169
8939.987349,0.953169
8940.846763,0.859414
8941.674926,0.828163
8942.596843,0.921917
8943.596889,1.000046
8944.581309,0.984420
8945.471975,0.890666
8946.409518,0.937543
8947.378312,0.968794
8948.315855,0.937543
8949.206521,0.890666
8950.112813,0.906291
8951.050355,0.937543
8951.987898,0.937543
8952.925441,0.937543
8953.784856,0.859414
8954.613019,0.828163
8955.534936,0.921917
8956.472479,0.937543
8957.425647,0.953169
8958.300687,0.875040
8959.238230,0.937543
8960.207025,0.968794
8961.113316,0.906291
8961.988356,0.875040
8962.910273,0.921917
8963.832191,0.921917
8964.675979,0.843789
8965.519768,0.843789
8966.426059,0.906291
8967.363602,0.937543
8968.223017,0.859414
8969.082431,0.859414
8970.004348,0.921917
8970.941891,0.937543
8971.832557,0.890666
8972.645094,0.812537
8973.520134,0.875040
8974.426425,0.906291
8975.348343,0.921917
8976.254634,0.906291
8976.973417,0.718783
8977.817206,0.843789
8978.692246,0.875040
8979.582911,0.890666
8980.457952,0.875040
8981.270489,0.812537
8982.114277,0.843789
8983.067446,0.953169
8984.020615,0.953169
8985.005035,0.984420
8985.911326,0.906291
8986.801992,0.890666
8987.739535,0.937543
8988.692703,0.953169
8989.614621,0.921917
8990.458409,0.843789
8991.317824,0.859414
8992.239741,0.921917
