1531385676.000000
1.000000
109.00
103.50
87.33
86.75
82.40
79.50
77.43
75.75
74.33
73.10
72.09
71.25
70.62
70.14
69.80
69.56
69.35
69.11
68.89
68.70
68.48
68.27
68.09
67.88
67.68
67.50
67.37
67.25
67.14
67.07
67.00
66.97
66.94
66.91
66.89
66.83
66.76
66.68
66.59
66.50
66.41
66.33
66.26
66.20
66.16
66.13
66.13
66.12
66.12
66.12
66.12
66.13
66.15
66.17
66.18
66.20
66.21
66.24
66.27
66.30
65.60
65.08
65.28
64.97
64.98
64.98
64.98
65.00
65.03
65.08
65.13
65.18
65.22
65.23
65.23
65.20
65.17
65.15
65.13
65.13
65.15
65.18
65.23
65.30
65.37
65.42
65.43
65.43
65.42
65.37
65.32
65.25
65.20
65.15
65.07
64.98
64.92
64.85
64.83
64.83
64.87
64.92
64.97
65.00
65.02
65.02
65.00
64.97
64.93
64.88
64.83
64.75
64.68
64.62
64.57
64.52
64.48
64.43
64.38
64.33
64.30
64.27
64.23
64.20
64.18
64.18
64.20
64.22
64.23
64.27
64.30
64.35
64.40
64.45
64.50
64.58
64.67
64.75
64.83
64.90
64.97
65.02
65.03
65.05
65.07
65.10
65.15
65.22
65.30
65.40
65.48
65.55
65.60
65.65
65.73
65.83
65.93
66.03
66.10
66.13
66.13
66.10
66.05
66.00
65.97
65.93
65.92
65.90
65.88
65.88
65.87
65.87
65.85
65.83
65.82
65.80
65.77
65.73
65.70
65.67
65.62
65.57
65.50
65.45
65.38
65.33
65.30
65.28
65.28
65.27
65.23
65.18
65.12
65.03
64.95
64.85
64.77
64.68
64.62
64.55
64.48
64.42
64.37
64.30
64.23
64.15
64.05
63.93
63.80
63.67
63.55
63.45
63.35
63.27
63.22
63.18
63.15
63.13
63.12
63.12
63.10
63.08
63.07
63.03
62.98
62.95
62.90
62.87
62.85
62.85
62.88
62.92
62.95
62.98
63.00
63.00
62.98
62.95
62.90
62.98
63.10
63.23
63.40
63.57
63.65
63.75
63.82
63.87
63.90
63.92
63.93
63.95
63.97
63.98
64.15
64.33
64.50
64.53
64.57
64.62
64.67
64.72
64.75
64.80
64.85
64.95
65.07
65.20
65.35
65.47
65.60
65.72
66.07
66.38
66.65
66.97
67.23
67.35
67.45
67.50
67.53
67.60
67.68
67.77
67.87
67.95
68.18
68.40
68.67
68.92
69.15
69.42
69.77
70.15
70.58
70.97
71.42
71.88
72.37
72.72
73.02
73.33
73.62
73.87
74.15
74.37
74.63
74.88
75.15
75.47
75.72
76.02
76.38
76.75
76.92
77.07
77.32
77.73
77.98
78.40
78.77
79.02
79.32
79.63
79.57
79.45
79.33
79.22
79.12
79.07
79.00
78.97
78.68
78.43
78.20
77.88
77.60
77.58
77.58
77.63
77.72
77.80
77.97
77.93
77.90
77.88
77.72
77.57
77.35
77.12
76.88
76.62
76.25
76.00
75.72
75.55
75.37
75.18
75.03
74.78
74.45
74.10
73.80
73.53
73.32
73.12
72.87
72.63
72.37
72.05
71.80
71.50
71.13
71.02
70.95
70.85
70.67
70.45
70.40
70.20
70.00
69.90
69.77
69.60
69.82
70.03
70.23
70.47
70.68
70.88
71.10
71.18
71.28
71.38
71.50
71.65
71.83
71.90
71.95
71.98
72.02
72.00
71.90
72.00
72.05
72.08
72.10
72.10
72.38
72.67
73.02
73.37
73.75
73.98
74.22
74.40
74.55
74.73
74.88
75.13
75.48
75.80
76.03
76.27
76.60
76.90
77.18
77.45
77.73
78.07
78.43
78.82
79.10
79.15
79.20
79.33
79.43
79.52
79.55
79.52
79.50
79.50
79.52
79.57
79.60
79.77
79.97
79.88
79.82
79.75
79.68
79.73
79.78
79.80
79.78
79.77
79.72
79.63
79.58
79.57
79.60
79.67
79.73
79.82
79.93
80.07
80.18
80.32
80.17
80.03
79.82
79.58
79.33
79.07
78.78
78.50
78.15
77.90
77.67
77.45
77.38
77.28
77.25
77.18
77.02
76.88
76.75
76.67
76.62
76.53
76.43
76.33
76.37
76.28
76.22
76.18
76.15
76.12
76.08
76.07
76.08
76.10
75.98
75.87
75.75
75.52
75.25
75.23
75.20
75.15
75.10
75.03
74.97
74.92
74.88
74.83
74.80
74.78
74.75
74.70
74.62
74.52
74.45
74.38
74.33
74.25
74.25
74.28
74.35
74.43
74.55
74.65
74.77
74.92
75.07
75.22
75.45
75.57
75.72
75.80
75.75
75.65
75.53
75.43
75.32
75.18
75.08
74.88
74.68
74.50
74.30
74.08
73.85
73.73
73.58
73.33
73.12
72.93
72.77
72.63
72.52
72.40
72.40
72.35
72.28
72.20
72.27
72.35
72.40
72.47
72.77
73.08
73.35
73.62
73.85
74.10
74.22
74.37
74.57
74.75
74.92
75.08
75.40
75.72
76.03
76.35
76.67
76.93
77.20
77.50
77.82
78.13
78.47
78.80
79.13
79.45
79.80
80.15
80.43
80.52
80.63
80.92
81.25
81.62
81.92
82.30
82.68
83.10
83.43
83.58
83.78
84.02
84.13
84.27
84.52
84.97
85.08
84.87
84.68
84.48
84.28
84.10
83.92
83.77
83.63
83.53
83.28
83.02
82.80
82.58
82.12
81.67
81.27
80.87
80.52
80.15
79.92
79.65
79.35
79.07
78.78
78.52
78.07
77.60
77.15
76.72
76.23
75.78
75.32
74.82
74.28
73.80
73.30
72.78
72.25
71.72
71.23
70.72
70.20
69.92
69.58
69.15
68.62
68.03
67.52
66.95
66.42
65.95
65.43
65.28
64.92
64.52
64.23
63.93
63.53
62.97
62.72
62.78
62.85
62.92
62.97
63.00
63.03
63.07
63.10
63.12
63.15
63.18
63.22
63.25
63.28
63.30
63.32
63.33
63.32
63.32
63.32
63.33
63.32
63.30
63.28
63.28
63.28
63.30
63.30
63.32
63.33
63.35
63.35
63.35
63.33
63.30
63.25
63.18
63.12
63.05
62.88
62.72
62.57
62.42
62.28
62.18
62.13
62.12
62.12
62.10
62.03
61.93
61.93
61.73
61.70
61.68
61.67
61.67
61.67
61.65
61.63
61.63
61.62
61.60
61.58
61.57
61.55
61.53
61.52
61.50
61.48
61.47
61.43
61.40
61.38
61.37
61.35
61.35
61.38
61.42
61.47
61.52
61.58
61.67
61.75
61.80
61.83
61.85
61.85
61.82
61.75
61.67
61.58
61.48
61.40
61.32
61.23
61.17
61.12
61.07
61.02
60.97
60.92
60.88
60.85
60.82
60.78
60.75
60.72
60.70
60.68
60.67
60.65
60.65
60.67
60.67
60.67
60.65
60.65
60.65
60.65
60.65
60.67
60.68
60.72
60.75
60.80
60.85
60.92
61.00
61.08
61.18
61.30
61.42
61.52
61.62
61.73
61.83
61.92
62.02
62.08
62.12
62.15
62.12
62.08
62.05
62.02
61.97
61.93
61.88
61.87
61.83
61.80
61.78
61.75
61.73
61.72
61.70
61.70
61.73
61.77
61.82
61.87
61.90
61.93
61.97
62.00
62.02
62.03
62.03
62.03
62.02
62.00
61.98
61.95
61.93
61.92
61.92
61.90
61.90
61.90
61.88
61.85
61.80
61.73
61.67
61.58
61.52
61.45
61.38
61.33
61.27
61.18
61.10
61.02
60.92
60.80
60.67
60.53
60.37
60.22
60.08
59.95
59.87
59.78
59.72
59.67
59.63
59.60
59.60
59.60
59.62
59.63
59.65
59.68
59.70
59.72
59.75
59.78
59.80
59.83
59.88
59.93
60.00
60.07
60.12
60.17
60.20
60.23
60.27
60.28
60.32
60.33
60.33
60.37
60.38
60.40
60.40
60.40
60.38
60.37
60.35
60.32
60.30
60.30
60.30
60.32
60.32
60.32
60.30
60.27
60.23
60.20
60.17
60.13
60.10
60.07
60.05
60.02
59.98
59.95
59.90
59.85
59.80
59.75
59.68
59.62
59.57
59.52
59.47
59.42
59.37
59.32
59.27
59.22
59.17
59.13
59.08
59.02
58.95
58.85
58.73
58.62
58.50
58.40
58.32
58.25
58.22
58.18
58.17
58.18
58.20
58.23
58.28
58.32
58.37
58.42
58.47
58.52
58.58
58.63
58.70
58.77
58.83
58.88
58.93
58.97
59.00
59.03
59.07
59.08
59.10
59.12
59.12
59.12
59.13
59.15
59.17
59.20
59.23
59.27
59.32
59.37
59.42
59.48
59.58
59.70
59.83
59.97
60.08
60.18
60.27
60.33
60.37
60.40
60.42
60.40
60.40
60.38
60.37
60.37
60.37
60.37
60.38
60.38
60.38
60.38
60.38
60.38
60.40
60.40
60.40
60.40
60.38
60.37
60.32
60.28
60.25
60.20
60.15
60.12
60.07
60.03
60.00
59.97
59.93
59.90
59.87
59.83
59.80
59.78
59.78
59.78
59.82
59.85
59.88
59.90
59.92
59.93
59.93
59.93
59.92
59.90
59.87
59.82
59.75
59.67
59.58
59.52
59.47
59.43
59.45
59.52
59.62
59.72
59.83
59.97
60.07
60.17
60.27
60.35
60.42
60.48
60.52
60.55
60.58
60.60
60.62
60.63
60.63
60.63
60.63
60.63
60.63
60.65
60.67
60.68
60.72
60.77
60.80
60.83
60.88
60.92
60.95
60.98
61.00
61.02
61.03
61.03
61.03
61.03
61.00
60.97
60.93
60.90
60.87
60.82
60.77
60.72
60.68
60.63
60.62
60.60
60.62
60.65
60.68
60.72
60.73
60.73
60.77
60.78
60.75
60.68
60.58
60.48
60.38
60.28
60.20
60.13
60.07
60.02
59.98
59.97
59.95
59.93
59.93
59.93
59.93
59.98
60.07
60.15
60.23
60.32
60.27
60.25
60.30
60.33
60.37
60.43
60.53
60.65
60.75
60.83
60.88
60.93
60.92
60.88
60.87
60.87
60.87
60.87
60.88
60.92
60.93
60.95
60.98
61.05
61.12
61.18
61.25
61.35
61.42
61.55
61.67
61.77
61.85
61.93
62.00
62.07
62.07
62.05
62.05
62.07
62.10
62.15
62.22
62.32
62.43
62.57
62.68
62.82
62.95
63.05
63.17
63.27
63.33
63.38
63.43
63.42
63.37
63.28
63.20
63.30
63.73
64.13
64.45
64.77
65.08
65.37
65.62
65.88
66.12
66.35
66.68
67.00
67.38
67.73
68.03
68.33
68.62
68.95
69.32
69.65
69.90
70.15
70.38
70.62
70.87
71.03
71.20
71.32
71.38
71.43
71.48
71.52
71.55
71.58
71.62
71.65
71.90
72.15
72.40
72.62
72.78
72.92
73.08
73.10
73.13
73.13
73.10
73.13
73.17
73.23
73.27
73.30
73.37
73.43
73.62
73.78
73.97
74.18
74.38
74.43
74.65
74.83
75.07
75.28
75.53
75.75
75.93
76.12
76.32
76.55
76.67
76.85
76.90
76.87
76.90
76.92
76.98
77.00
76.95
76.92
76.97
77.02
77.07
77.12
77.17
77.27
77.43
77.67
77.95
78.20
78.47
78.75
79.03
79.32
79.60
79.90
80.03
80.17
80.27
80.38
80.52
80.63
80.75
80.95
80.97
80.98
81.07
81.23
81.43
81.57
81.68
81.82
82.00
82.23
82.35
82.52
82.67
82.80
82.95
83.07
82.82
82.57
82.33
82.13
81.88
81.72
81.58
81.35
81.10
80.87
80.67
80.43
80.35
80.50
80.63
80.78
80.92
81.07
81.25
81.43
81.62
81.80
82.00
82.22
82.42
82.67
82.90
83.12
83.35
83.57
83.78
84.02
84.30
84.60
84.92
85.25
85.57
85.87
86.20
86.50
86.83
87.08
87.32
87.60
88.05
88.55
88.97
89.25
89.52
89.83
90.23
90.63
91.07
91.47
91.85
92.23
92.62
93.05
93.47
93.88
94.30
94.67
94.93
95.18
95.43
95.65
96.07
96.53
97.03
97.53
98.03
98.53
99.05
99.47
99.90
100.33
100.77
101.20
101.60
101.98
102.37
102.73
103.12
103.48
103.88
104.28
104.63
105.02
105.42
105.80
106.17
106.52
106.82
107.12
107.42
107.68
107.95
108.30
108.65
109.03
109.43
109.95
110.45
110.93
111.42
111.88
112.43
112.93
113.40
113.87
114.32
114.77
115.13
115.47
115.83
116.17
116.52
116.85
117.20
117.55
117.92
118.35
118.85
119.32
119.82
120.27
120.52
120.78
121.03
121.28
121.55
121.78
122.00
122.23
122.45
122.65
122.80
122.93
123.10
123.30
123.50
123.65
123.78
123.92
124.02
124.10
124.18
124.22
124.25
124.32
124.38
124.42
124.47
124.48
124.48
124.48
124.47
124.40
124.33
124.27
124.18
124.08
123.97
123.85
123.70
123.53
123.33
123.15
122.98
122.80
122.57
122.33
122.05
121.82
121.53
121.28
120.98
120.67
120.35
120.02
119.70
119.32
118.93
118.60
118.28
118.03
117.77
117.50
117.27
117.15
117.05
116.97
116.88
116.78
116.78
116.82
116.88
116.93
116.98
116.98
117.00
117.10
117.18
117.27
117.35
117.43
117.57
117.70
117.82
117.92
118.02
118.17
118.35
118.57
118.80
119.02
119.25
119.48
119.70
119.93
120.18
120.43
120.68
120.98
121.30
121.62
121.95
122.28
122.57
122.83
123.07
123.28
123.57
123.85
124.18
124.43
124.70
124.97
125.27
125.60
125.93
126.25
126.53
126.78
126.97
127.15
127.40
127.38
127.32
127.15
126.95
126.75
126.55
126.33
126.02
125.70
125.38
125.07
124.75
124.48
124.22
123.98
123.77
123.57
123.37
123.17
122.78
122.37
121.95
121.53
121.13
120.75
120.37
119.98
119.62
119.35
119.08
118.87
118.68
118.47
118.23
118.03
117.80
117.50
117.13
116.75
116.37
115.98
115.60
115.23
114.93
114.65
114.32
113.97
113.58
113.25
112.93
112.62
112.25
111.87
111.45
111.13
110.87
110.63
110.47
110.25
109.98
110.00
110.02
109.95
109.88
109.80
109.70
109.63
109.52
109.38
109.27
109.15
109.05
108.92
108.72
108.48
108.23
107.98
107.72
107.45
107.32
107.23
107.15
107.07
106.95
106.78
106.58
106.38
106.18
105.93
105.57
105.13
104.67
104.22
103.75
103.20
102.67
102.10
101.65
101.18
100.77
100.38
100.18
99.98
99.85
99.58
99.35
99.12
98.93
98.77
98.62
98.38
98.45
98.50
98.55
98.62
98.68
98.72
98.67
98.60
98.52
98.40
98.33
98.35
98.45
98.57
98.70
98.83
99.02
99.25
99.52
99.78
100.03
100.32
100.63
100.93
101.23
101.48
101.75
102.03
102.33
102.60
102.87
103.13
103.40
103.70
104.02
104.28
104.53
104.73
105.03
105.37
105.72
106.07
106.35
106.73
107.13
107.58
107.98
108.42
108.80
109.15
109.37
109.60
109.75
110.05
110.32
110.58
110.80
111.02
111.20
111.48
111.48
111.50
111.50
111.47
111.43
111.40
111.43
111.48
111.53
111.62
111.70
111.75
111.70
111.65
111.62
111.55
111.45
111.28
111.07
110.87
110.67
110.48
110.30
110.12
109.95
109.80
109.65
109.43
109.23
109.05
108.87
108.70
108.58
108.47
108.30
108.15
108.00
107.85
107.72
107.55
107.42
107.30
107.27
107.22
107.15
107.08
106.98
106.88
106.77
106.65
106.53
106.42
106.33
106.23
106.13
106.05
105.97
105.90
105.85
105.78
105.72
105.63
105.58
105.52
105.40
105.30
105.13
105.00
104.85
104.68
104.50
104.32
104.13
103.97
103.80
103.67
103.53
103.40
103.10
102.78
102.47
102.13
101.82
101.50
101.13
100.80
100.45
100.15
99.85
99.48
99.08
98.72
98.28
97.82
97.28
97.13
96.97
96.80
96.67
96.53
96.25
95.95
95.68
95.53
95.40
95.38
95.37
95.37
95.37
95.40
95.43
95.48
95.53
95.57
95.63
95.68
95.73
95.72
95.73
95.72
95.72
95.73
95.68
95.62
95.55
95.47
95.43
95.42
95.43
95.45
95.40
95.37
95.38
95.42
95.53
95.63
95.75
95.95
96.30
96.63
96.95
97.23
97.50
97.73
97.85
97.95
98.07
98.18
98.28
98.45
98.63
98.77
98.95
99.17
99.50
99.45
99.42
99.40
99.38
99.42
99.50
99.60
99.65
99.58
99.50
99.30
99.12
98.88
98.67
98.43
98.22
97.95
97.67
97.40
97.15
96.92
96.72
96.58
96.43
96.30
96.15
95.95
95.80
95.65
95.63
95.72
95.78
95.82
95.83
95.83
95.92
95.98
96.03
96.07
95.98
95.90
95.82
95.77
95.72
95.53
95.23
94.98
94.75
94.57
94.53
94.50
94.47
94.43
94.38
94.35
94.35
94.35
94.32
94.27
94.18
94.08
93.98
93.87
93.62
93.33
93.13
92.93
92.77
92.60
92.47
92.28
92.23
92.20
92.17
92.08
92.00
91.97
91.93
91.92
91.87
91.78
91.68
91.58
91.43
91.32
91.20
91.15
91.08
91.10
91.00
90.85
90.67
90.48
90.30
90.13
89.87
89.63
89.40
89.18
88.98
88.82
88.65
88.40
88.18
88.13
88.22
88.27
88.32
88.32
88.33
88.35
88.37
88.38
88.40
88.40
88.38
88.37
88.37
88.37
88.38
88.43
88.47
88.55
88.73
88.95
89.20
89.40
89.57
89.68
89.77
89.75
89.63
89.58
89.55
89.57
89.58
89.58
89.60
89.60
89.58
89.58
89.57
89.57
89.60
89.63
89.67
89.68
89.72
89.72
89.72
89.70
89.70
89.72
89.73
89.72
89.82
89.88
89.90
89.93
89.95
89.92
89.88
89.87
89.87
89.85
89.93
89.97
89.95
90.02
89.92
89.85
89.75
89.67
89.60
89.53
89.42
89.33
89.28
89.23
89.18
89.15
89.13
89.10
89.05
88.98
88.87
88.82
88.78
88.80
88.82
88.97
89.10
89.18
89.25
89.28
89.27
89.30
89.32
89.33
89.38
89.38
89.40
89.38
89.37
89.25
89.13
89.05
88.93
88.80
88.70
88.60
88.57
88.55
88.52
88.53
88.48
88.43
88.43
88.40
88.35
88.28
88.18
88.07
87.92
87.82
87.68
87.60
87.52
87.33
87.30
87.10
86.87
86.60
86.27
86.05
85.88
85.70
85.45
85.23
85.02
84.78
84.58
84.30
84.05
83.82
83.60
83.33
83.03
82.67
82.30
81.93
81.53
81.10
80.80
80.53
80.32
80.03
79.77
79.47
79.10
78.78
78.48
78.18
77.97
77.83
77.72
77.60
77.47
77.35
77.17
76.92
76.62
76.23
75.88
75.70
75.50
75.30
75.12
74.90
74.72
74.77
74.82
74.85
74.90
74.78
74.60
74.40
74.22
74.05
73.93
73.95
74.10
74.27
74.47
74.58
74.85
75.08
75.33
75.53
75.72
75.92
76.07
76.30
76.47
76.60
76.72
76.83
76.97
77.15
77.25
77.38
77.58
77.83
77.98
78.15
78.28
78.48
78.67
78.87
79.18
79.50
79.82
80.13
80.40
80.68
80.93
81.15
81.40
81.65
81.97
82.30
82.63
83.02
83.38
83.62
83.90
84.17
84.42
84.70
84.98
85.10
85.18
85.33
85.43
85.70
85.95
86.20
86.47
86.68
86.87
87.00
87.05
87.02
87.00
86.97
86.80
86.65
86.43
86.23
86.05
85.85
85.67
85.70
85.80
85.92
86.03
86.17
86.32
86.47
86.72
86.95
87.15
87.33
87.48
87.58
87.68
87.73
87.77
87.82
87.78
87.70
87.57
87.42
87.22
86.97
86.70
86.43
86.15
85.85
85.55
85.28
85.02
84.73
84.47
84.13
83.73
83.35
82.95
82.53
82.22
81.87
81.60
81.52
81.47
81.38
81.33
81.30
81.28
81.33
81.38
81.48
81.60
81.78
81.95
82.07
82.18
82.32
82.47
82.63
82.83
83.05
83.28
83.28
83.27
83.25
83.23
83.22
83.20
83.18
83.18
83.17
83.10
83.00
82.88
82.73
82.58
82.42
82.27
82.08
81.97
81.90
81.87
81.83
81.72
81.60
81.63
81.68
81.90
82.13
82.38
82.60
82.82
83.07
83.32
83.58
83.93
84.27
84.63
85.05
85.38
85.72
86.02
86.02
86.03
86.05
86.00
85.97
85.92
85.93
85.92
85.88
85.88
85.98
86.07
86.18
86.28
86.37
86.52
86.77
86.98
87.13
87.27
87.38
87.50
87.63
87.75
87.88
88.02
88.17
88.15
88.15
88.20
88.30
88.37
88.50
88.60
88.70
88.80
88.97
89.08
89.20
89.33
89.47
89.68
89.95
90.08
90.20
90.18
90.17
90.13
90.15
90.18
90.20
90.22
90.23
90.23
90.25
90.25
90.20
90.13
90.07
90.03
90.05
90.05
90.05
90.10
90.15
90.20
90.20
90.23
90.27
90.27
90.18
90.13
90.05
89.93
89.85
89.73
89.47
89.23
89.05
88.88
88.77
88.65
88.52
88.38
88.25
88.12
87.95
87.92
87.90
87.90
87.87
87.92
87.93
88.02
88.10
88.20
88.27
88.33
88.40
88.45
88.52
88.60
88.67
88.75
88.83
88.90
88.93
88.98
89.02
89.03
89.10
89.15
89.22
89.28
89.35
89.40
89.45
89.48
89.53
89.55
89.58
89.62
89.65
89.68
89.70
89.72
89.72
89.70
89.70
89.70
89.70
89.70
89.73
89.80
89.83
89.90
90.00
90.07
90.15
90.20
90.23
90.25
90.28
90.33
90.37
90.38
90.48
90.57
90.63
90.67
90.95
91.20
91.45
91.62
91.77
91.88
91.98
91.98
91.98
91.98
91.98
92.00
92.02
92.03
92.05
92.10
92.15
92.18
92.20
92.22
92.18
92.15
92.15
92.15
92.15
92.18
92.18
92.22
92.22
92.25
92.27
92.28
92.33
92.42
92.48
92.57
92.68
92.80
92.92
93.03
93.15
93.27
93.38
93.55
93.73
93.88
94.03
94.23
94.45
94.68
94.88
95.10
95.27
95.50
95.73
95.95
96.12
96.30
96.47
96.67
96.48
96.27
96.08
95.95
95.90
95.85
95.82
95.87
95.93
96.00
96.07
96.05
96.03
96.02
96.00
95.95
95.92
95.83
95.75
95.67
95.57
95.48
95.37
95.23
95.12
94.98
94.88
94.73
94.60
94.45
94.22
93.98
93.75
93.48
93.15
92.85
92.53
92.25
91.98
91.75
91.48
91.12
90.73
90.37
89.93
89.53
89.13
88.70
88.22
87.75
87.27
86.73
86.20
85.62
85.00
84.42
83.83
83.58
83.37
83.13
83.07
83.03
83.10
83.20
83.25
83.32
83.38
83.45
83.50
83.53
83.58
83.70
83.78
83.87
83.95
84.05
84.17
84.32
84.45
84.57
84.70
84.83
84.87
84.95
85.00
85.02
85.03
85.10
85.17
85.23
85.42
85.57
85.65
85.80
86.03
86.22
86.42
86.58
86.70
86.75
86.90
87.15
87.40
87.53
87.72
87.88
88.02
88.17
88.33
88.48
88.65
88.87
89.12
89.38
89.75
90.12
90.48
90.57
90.60
90.62
90.62
90.62
90.40
90.38
90.37
90.33
90.25
90.23
90.22
90.22
90.22
90.35
90.50
90.58
90.65
90.67
90.67
90.67
90.68
90.72
90.75
90.80
90.95
91.07
91.18
91.30
91.42
91.52
91.65
91.77
91.87
91.95
92.08
92.17
92.25
92.38
92.40
92.43
92.48
92.57
92.58
92.60
92.63
92.72
92.78
92.88
93.03
93.15
93.32
93.47
93.67
93.85
94.02
94.05
94.05
94.02
93.93
93.78
93.62
93.47
93.32
93.17
93.17
92.97
92.83
92.73
92.68
92.57
92.47
92.38
92.27
92.02
91.75
91.55
91.37
91.23
91.12
90.98
90.92
90.83
90.73
90.60
90.45
90.28
90.10
89.97
89.82
89.68
89.52
89.33
89.10
88.95
88.83
88.68
88.50
88.30
88.08
87.87
87.67
87.55
87.47
87.30
87.15
86.98
86.82
86.60
86.38
86.12
85.78
85.48
85.13
84.82
84.55
84.50
84.42
84.37
84.35
84.40
84.55
84.70
84.85
85.02
85.13
85.23
85.27
85.28
85.33
85.45
85.55
85.65
85.77
85.90
86.08
86.22
86.33
86.45
86.58
86.75
86.93
87.18
87.47
87.82
88.17
88.53
88.93
89.35
89.58
89.78
89.88
89.98
90.13
90.25
90.32
90.40
90.50
90.58
90.78
90.93
91.05
91.07
90.97
90.98
90.93
90.93
90.95
91.02
91.03
91.13
91.43
91.73
92.05
92.35
92.60
92.75
92.88
93.00
93.12
93.20
93.23
93.27
93.32
93.35
93.38
93.43
93.48
93.55
93.58
93.58
93.58
93.57
93.55
93.52
93.47
93.47
93.48
93.50
93.48
93.45
93.35
93.18
93.02
92.82
92.62
92.42
92.25
92.03
92.02
92.00
92.07
92.18
92.30
92.43
92.55
92.65
92.80
92.92
92.98
93.07
93.15
93.23
93.40
93.53
93.72
93.87
94.02
94.15
94.32
94.45
94.40
94.33
94.27
94.20
94.15
94.08
94.03
94.02
94.02
94.00
94.02
94.02
94.00
94.00
94.00
94.00
93.97
93.95
93.93
93.92
93.90
93.90
93.90
93.92
93.93
93.97
94.00
94.07
94.12
94.18
94.23
94.32
94.37
94.38
94.40
94.40
94.38
94.38
94.37
94.38
94.40
94.43
94.45
94.43
94.45
94.47
94.45
94.47
94.53
94.62
94.73
94.88
95.05
95.20
95.37
95.52
95.67
95.83
96.00
96.17
96.33
96.52
96.72
96.90
97.10
97.30
97.50
97.68
97.85
98.03
98.17
98.30
98.42
98.50
98.57
98.62
98.77
98.88
99.00
99.10
99.18
99.25
99.22
99.20
99.20
99.18
99.18
99.17
99.17
99.15
99.17
99.18
99.22
99.27
99.32
99.40
99.48
99.57
99.67
99.75
99.87
99.95
100.03
100.15
100.27
100.42
100.60
100.80
101.02
101.25
101.48
101.72
101.93
102.22
102.50
102.80
103.10
103.38
103.68
103.98
104.27
104.53
104.78
105.05
105.32
105.60
105.88
106.17
106.45
106.75
107.07
107.42
107.77
108.13
108.53
108.95
109.30
109.65
110.00
110.37
110.75
111.13
111.63
112.10
112.55
113.00
113.42
113.82
114.22
114.63
115.03
115.42
115.82
116.23
116.67
117.10
117.50
117.88
118.28
118.68
119.05
119.42
119.77
120.12
120.47
120.80
121.10
121.38
121.65
121.92
122.17
122.38
122.60
122.75
122.88
123.02
123.15
123.28
123.40
123.53
123.70
123.88
124.07
124.23
124.37
124.48
124.58
124.68
124.77
124.83
124.90
124.95
125.03
125.12
125.18
125.22
125.25
125.28
125.32
125.33
125.35
125.37
125.37
125.37
125.37
125.38
125.42
125.47
125.53
125.58
125.62
125.63
125.62
125.57
125.50
125.42
125.35
125.30
125.23
125.17
125.12
125.07
125.03
124.98
124.92
124.85
124.78
124.72
124.65
124.57
124.50
124.47
124.45
124.47
124.47
124.47
124.47
124.47
124.45
124.40
124.33
124.25
124.17
124.10
124.05
124.00
123.97
123.93
123.92
123.90
123.88
123.87
123.82
123.77
123.73
123.72
123.70
123.68
123.67
123.65
123.63
123.60
123.57
123.53
123.50
123.45
123.40
123.33
123.23
123.15
123.07
123.00
122.93
122.88
122.82
122.75
122.68
122.62
122.53
122.38
122.23
122.25
122.28
122.33
122.42
122.55
122.67
122.80
122.93
123.07
123.20
123.33
123.45
123.55
123.68
123.80
123.92
124.03
124.18
124.35
124.53
124.72
124.92
125.12
125.32
125.52
125.72
125.93
126.15
126.38
126.62
126.85
127.12
127.37
127.60
127.83
128.07
128.32
128.55
128.80
129.05
129.32
129.60
129.88
130.18
130.48
130.78
131.08
131.40
131.70
132.02
132.33
132.68
133.03
133.40
133.78
134.17
134.55
134.95
135.42
135.88
136.17
136.45
136.72
136.95
137.13
137.35
137.55
137.75
137.97
138.17
138.35
138.53
138.72
138.88
139.07
139.25
139.43
139.60
139.77
139.92
140.07
140.20
140.33
140.48
140.63
140.78
140.92
141.05
141.17
141.30
141.42
141.52
141.65
141.78
141.92
142.05
142.17
142.28
142.40
142.52
142.62
142.70
142.80
142.87
142.93
143.00
143.07
143.13
143.22
143.28
143.37
143.43
143.50
143.57
143.62
143.67
143.73
143.80
143.87
143.92
144.00
144.07
144.13
144.20
144.27
144.30
144.33
144.38
144.42
144.45
144.48
144.52
144.55
144.58
144.62
144.63
144.67
144.70
144.72
144.73
144.77
144.80
144.83
144.85
144.85
144.85
144.87
144.87
144.85
144.82
144.82
144.82
144.80
144.78
144.75
144.72
144.68
144.65
144.58
144.50
144.42
144.32
144.20
144.08
143.97
143.83
143.70
143.17
142.55
141.80
141.07
140.32
139.60
138.85
138.13
137.38
136.65
135.92
135.48
135.00
134.47
133.88
133.25
132.57
131.87
131.20
130.57
129.93
129.28
128.63
128.00
127.37
126.75
126.15
125.57
124.93
124.30
123.68
123.07
122.37
121.63
120.90
120.13
119.33
118.58
117.85
116.98
116.10
115.20
114.03
112.83
111.68
110.53
109.30
108.10
106.90
105.70
104.52
103.40
102.20
101.05
99.93
98.80
97.62
96.45
95.28
94.12
93.43
92.82
92.32
91.83
91.37
90.90
90.38
89.82
89.28
88.73
88.20
87.38
86.67
85.97
85.30
84.68
84.12
83.53
82.93
82.30
81.63
80.98
80.33
79.70
79.07
78.42
77.75
77.05
76.50
75.93
75.37
74.78
74.33
73.90
73.50
73.12
72.80
72.42
72.07
71.95
71.92
71.93
72.55
73.17
73.73
74.30
74.95
75.57
76.17
76.77
77.35
77.92
78.57
79.18
79.82
80.47
81.22
81.95
82.72
83.47
84.13
84.82
85.53
86.18
86.83
87.43
88.13
88.83
89.52
90.13
90.70
91.23
91.70
92.20
92.70
93.20
93.67
94.18
94.70
95.20
95.70
96.22
96.70
97.17
97.65
98.15
98.60
99.07
99.47
99.88
100.32
100.80
101.13
101.67
102.15
102.65
103.12
103.62
104.07
104.40
104.70
104.97
104.88
104.82
104.73
104.65
104.55
104.47
104.40
104.28
104.20
104.05
103.90
103.77
103.55
103.28
102.97
102.67
102.37
102.08
101.75
101.40
101.05
100.68
100.20
99.67
99.12
98.58
98.10
97.62
97.08
96.53
96.03
95.58
95.13
94.95
94.80
94.73
94.68
94.67
94.65
94.77
94.92
95.05
95.17
95.27
95.40
95.53
95.65
95.77
95.85
95.92
96.10
96.08
96.10
96.12
96.13
96.13
96.15
96.13
96.10
96.08
96.08
96.13
96.18
96.22
96.27
96.28
96.37
96.48
96.57
96.68
96.82
96.98
97.22
97.50
97.72
97.97
98.22
98.47
98.78
99.10
99.42
99.75
100.20
100.70
101.18
101.67
102.12
102.62
103.25
103.95
104.60
105.18
105.77
106.07
106.33
106.63
106.90
107.13
107.35
107.38
107.47
107.55
107.63
107.72
107.78
107.88
107.98
108.07
108.15
108.22
108.28
108.33
108.33
108.32
108.30
108.30
108.28
108.32
108.38
108.45
108.52
108.53
108.55
108.57
108.58
108.63
108.60
108.60
108.63
108.68
108.73
108.70
108.65
108.57
108.57
108.52
108.43
108.37
108.30
108.23
108.18
108.15
108.15
108.15
108.12
108.07
108.02
107.98
108.05
108.10
108.18
108.22
108.23
108.28
108.37
108.30
108.22
108.10
108.02
107.97
107.88
107.75
107.62
107.48
107.40
107.28
107.15
107.00
106.87
106.77
106.67
106.60
106.57
106.55
106.55
106.58
106.58
106.57
106.50
106.43
106.37
106.28
106.18
106.10
106.00
105.92
105.83
105.78
105.72
105.63
105.55
105.48
105.40
105.32
105.22
105.12
105.03
104.98
104.93
104.83
104.72
104.62
104.48
104.35
104.20
104.03
103.82
103.57
103.22
102.80
102.35
101.97
101.62
101.27
100.95
100.83
100.75
100.72
100.68
100.63
100.62
100.63
100.67
100.70
100.70
100.73
100.77
100.82
100.87
100.90
100.92
101.08
101.27
101.42
101.52
101.60
101.75
101.90
102.05
102.20
102.38
102.58
102.85
103.12
103.38
103.62
103.92
104.17
104.35
104.58
104.77
104.92
105.08
105.30
105.42
105.57
105.82
106.02
106.15
106.40
106.82
106.82
106.82
106.83
106.95
107.08
107.27
107.47
107.60
107.75
107.95
108.10
108.28
108.43
108.60
108.60
108.62
108.63
108.65
108.63
108.63
108.62
108.55
108.52
108.50
108.50
108.52
108.53
108.53
108.52
108.45
108.20
107.93
107.68
107.47
107.23
107.00
106.82
106.65
106.48
106.28
106.08
105.82
105.53
105.22
104.95
104.65
104.37
104.17
103.95
103.78
103.67
103.53
103.37
103.32
103.25
103.08
102.92
102.80
102.60
102.27
102.30
102.32
102.32
102.30
102.32
102.33
102.37
102.42
102.48
102.57
102.68
102.77
102.87
102.92
102.95
102.97
102.97
102.93
102.95
102.92
102.97
103.18
103.43
103.68
103.87
104.05
104.22
104.35
104.47
104.62
104.77
104.90
105.05
105.18
105.28
105.30
105.23
105.17
105.07
104.97
104.87
104.80
104.73
104.72
104.65
104.55
104.42
104.27
104.08
103.92
103.72
103.53
103.37
103.18
102.97
102.75
102.52
102.28
102.05
101.80
101.58
101.37
101.17
100.95
100.70
100.45
100.18
99.90
99.63
99.35
99.08
98.82
98.55
98.30
98.03
97.75
97.48
97.23
96.95
96.62
96.25
95.75
95.17
94.62
94.10
93.57
93.07
92.62
92.20
91.80
91.42
91.05
90.70
90.40
90.13
89.92
89.75
89.57
89.42
89.25
89.10
88.97
88.85
88.75
88.68
88.63
88.62
88.60
88.57
88.52
88.48
88.45
88.42
88.40
88.40
88.40
88.45
88.48
88.53
88.58
88.63
88.70
88.77
88.82
88.87
88.93
89.00
89.07
89.13
89.17
89.18
89.20
89.22
89.22
89.23
89.27
89.30
89.35
89.43
89.57
89.68
89.80
89.92
90.00
90.07
90.13
90.18
90.22
90.23
90.25
90.27
90.30
90.33
90.33
90.33
90.35
90.33
90.32
90.32
90.33
90.35
90.35
90.37
90.40
90.42
90.43
90.43
90.43
90.45
90.43
90.43
90.42
90.40
90.38
90.37
90.35
90.30
90.27
90.23
90.20
90.17
90.13
90.10
90.07
90.05
90.02
89.98
89.97
89.95
89.95
89.95
89.95
89.93
89.92
89.90
89.88
89.87
89.87
89.87
89.87
89.87
89.87
89.87
89.88
89.88
89.88
89.88
89.88
89.90
89.92
89.95
89.98
90.00
90.02
90.03
90.03
90.05
90.08
90.08
90.08
90.07
90.05
90.02
89.95
89.90
89.85
89.78
89.73
89.65
89.62
89.58
89.57
89.53
89.52
89.52
89.52
89.50
89.48
89.47
89.43
89.40
89.35
89.32
89.30
89.28
89.27
89.27
89.27
89.27
89.27
89.27
89.27
89.28
89.30
89.32
89.32
89.32
89.30
89.30
89.30
89.30
89.27
89.25
89.25
89.27
89.30
89.33
89.38
89.43
89.50
89.57
89.58
89.60
89.62
89.62
89.62
89.62
89.62
89.60
89.62
89.63
89.67
89.70
89.73
89.75
89.77
89.72
89.72
89.75
89.77
89.78
89.80
89.83
89.83
89.82
89.78
89.75
89.70
89.65
89.60
89.55
89.53
89.52
89.50
89.48
89.48
89.48
89.43
89.40
89.37
89.30
89.28
89.25
89.22
89.17
89.15
89.13
89.08
89.00
88.87
88.77
88.73
88.68
88.60
88.52
88.43
88.35
88.25
88.15
88.03
87.90
87.80
87.72
87.63
87.57
87.52
87.45
87.37
87.32
87.23
87.15
87.05
86.97
86.88
86.80
86.72
86.72
86.65
86.60
86.55
86.50
86.45
86.40
86.37
86.33
86.32
86.30
86.30
86.28
86.27
86.25
86.23
86.20
86.17
86.15
86.12
86.07
86.08
86.07
86.05
86.07
86.03
86.02
86.00
86.00
86.00
86.00
86.05
86.12
86.22
86.28
86.32
86.33
86.30
86.23
86.17
86.08
86.00
85.92
85.83
85.82
85.80
85.78
85.77
85.77
85.75
85.75
85.77
85.78
85.80
85.82
85.83
85.83
85.83
85.85
85.85
85.87
85.88
85.87
85.85
85.82
85.78
85.75
85.72
85.68
85.67
85.67
85.67
85.68
85.68
85.68
85.65
85.60
85.53
85.45
85.38
85.33
85.27
85.22
85.18
85.15
85.10
85.05
85.02
84.98
84.95
84.93
84.90
84.87
84.85
84.82
84.77
84.73
84.78
84.85
84.92
85.00
85.07
85.15
85.22
85.22
85.20
85.18
85.20
85.18
85.18
85.20
85.22
85.25
85.30
85.33
85.37
85.40
85.43
85.43
85.43
85.42
85.40
85.38
85.38
85.40
85.42
85.45
85.48
85.53
85.57
85.60
85.62
85.62
85.63
85.63
85.65
85.70
85.75
85.82
85.88
85.97
86.02
86.07
86.12
86.17
86.23
86.30
86.33
86.37
86.37
86.35
86.30
86.25
86.20
86.17
86.17
86.18
86.17
86.17
86.17
86.17
86.18
86.20
86.23
86.27
86.32
86.37
86.38
86.42
86.45
86.45
86.45
86.43
86.42
86.42
86.42
86.42
86.42
86.45
86.50
86.55
86.60
86.67
86.70
86.70
86.68
86.65
86.62
86.57
86.48
86.40
86.32
86.23
86.17
86.10
86.07
86.03
86.05
86.03
86.05
85.97
85.88
85.80
85.68
85.57
85.43
85.30
85.18
85.05
84.95
84.85
84.77
84.62
84.47
84.32
84.18
84.08
84.00
84.05
84.12
84.18
84.25
84.32
84.38
84.45
84.52
84.55
84.57
84.57
84.53
84.52
84.48
84.45
84.42
84.40
84.38
84.37
84.37
84.35
84.33
84.32
84.30
84.27
84.23
84.22
84.22
84.22
84.23
84.25
84.32
84.38
84.48
84.60
84.70
84.80
84.87
84.92
84.93
84.98
84.97
85.02
85.12
85.22
85.33
85.45
85.58
85.73
85.88
86.05
86.20
86.35
86.50
86.70
86.90
87.08
87.22
87.32
87.40
87.35
87.30
87.25
87.22
87.17
87.12
87.07
87.02
86.97
86.92
86.88
86.83
86.77
86.73
86.70
86.68
86.67
86.67
86.68
86.70
86.72
86.72
86.72
86.70
86.68
86.67
86.67
86.67
86.65
86.62
86.60
86.58
86.58
86.57
86.55
86.55
86.55
86.55
86.53
86.50
86.45
86.40
86.33
86.25
86.17
86.10
86.03
85.98
85.93
85.90
85.88
85.87
85.85
85.85
85.87
85.87
85.88
85.90
85.92
85.92
85.93
85.97
86.00
86.02
86.05
86.07
86.07
86.07
86.13
86.08
86.00
85.95
85.97
85.95
85.93
85.90
85.88
85.85
85.78
85.70
85.60
85.52
85.45
85.38
85.35
85.33
85.33
85.35
85.40
85.45
85.48
85.48
85.45
85.40
85.33
85.25
85.17
85.08
85.03
85.00
84.98
85.00
85.05
85.12
85.15
85.17
85.18
85.17
85.07
84.90
84.72
84.50
84.28
84.08
83.90
83.77
83.62
83.50
83.48
83.45
83.38
83.27
83.17
83.07
82.97
82.88
82.87
82.85
82.78
82.85
82.97
83.07
83.12
83.20
83.30
83.40
83.47
83.53
83.60
83.65
83.70
83.73
83.73
83.73
83.73
83.75
83.75
83.75
83.75
83.77
83.78
83.83
83.92
84.00
84.10
84.20
84.32
84.43
84.55
84.67
84.77
84.87
84.95
85.00
85.08
85.15
85.20
85.25
85.38
85.55
85.72
85.95
86.20
86.43
86.65
86.83
87.03
87.22
87.28
87.35
87.42
87.50
87.57
87.63
87.68
87.73
87.75
87.77
87.78
87.78
87.75
87.73
87.70
87.63
87.55
87.45
87.35
87.25
87.18
87.15
87.15
87.17
87.22
87.28
87.33
87.37
87.42
87.43
87.43
87.42
87.40
87.35
87.28
87.23
87.15
87.08
87.00
86.93
86.85
86.77
86.68
86.60
86.52
86.45
86.38
86.35
86.33
86.35
86.35
86.37
86.38
86.37
86.35
86.33
86.32
86.30
86.28
86.25
86.22
86.22
86.22
86.22
86.23
86.25
86.27
86.28
86.27
86.25
86.13
86.07
86.07
86.07
86.12
86.17
86.22
86.27
86.32
86.38
86.43
86.48
86.53
86.58
86.62
86.65
86.68
86.72
86.73
86.75
86.77
86.78
86.80
86.83
86.87
86.90
86.97
87.03
87.12
87.18
87.23
87.27
87.28
87.28
87.27
87.23
87.20
87.15
87.12
87.07
87.03
86.98
86.93
86.90
86.87
86.83
86.80
86.75
86.70
86.67
86.65
86.60
86.53
86.48
86.47
86.45
86.42
86.38
86.37
86.33
86.32
86.28
86.23
86.17
86.10
86.05
86.00
85.97
85.93
85.88
85.83
85.78
85.72
85.65
85.58
85.52
85.47
85.42
85.38
85.37
85.35
85.35
85.35
85.32
85.28
85.23
85.18
85.12
85.07
84.98
84.93
84.92
84.95
84.97
85.00
85.03
85.03
85.08
85.12
85.17
85.20
85.25
85.32
85.38
85.43
85.47
85.48
85.55
85.57
85.58
85.57
85.57
85.58
85.58
85.53
85.48
85.43
85.38
85.33
85.30
85.35
85.37
85.33
85.30
85.25
85.20
85.17
85.12
85.08
85.07
85.05
85.03
85.00
84.97
84.90
84.80
84.72
84.62
84.50
84.38
84.30
84.22
84.15
84.13
84.13
84.15
84.18
84.23
84.27
84.35
84.43
84.48
84.50
84.53
84.57
84.60
84.68
84.73
84.73
84.72
84.68
84.65
84.65
84.65
84.75
84.83
84.90
84.93
84.98
84.98
85.02
85.08
85.17
85.23
85.33
85.43
85.57
85.70
85.82
85.87
85.95
86.07
86.20
86.35
86.50
86.65
86.80
86.95
87.10
87.22
87.33
87.45
87.60
87.75
87.93
88.15
88.33
88.50
88.67
88.80
88.92
89.02
89.08
89.12
89.12
89.08
89.03
88.97
88.90
88.83
88.77
88.73
88.70
88.65
88.63
88.63
88.63
88.62
88.65
88.68
88.73
88.80
88.75
88.73
88.62
88.53
88.48
88.43
88.40
88.42
88.42
88.37
88.32
88.28
88.22
88.17
88.05
87.92
87.85
87.85
87.82
87.75
87.68
87.65
87.63
87.62
87.58
87.53
87.48
87.48
87.45
87.40
87.35
87.28
87.17
87.02
86.85
86.70
86.53
86.42
86.37
86.32
86.23
86.18
86.18
86.22
86.27
86.30
86.33
86.37
86.42
86.47
86.53
86.62
86.70
86.78
86.82
86.87
86.90
86.93
86.97
87.00
87.12
87.20
87.28
87.37
87.47
87.57
87.68
87.78
87.88
88.02
88.15
88.30
88.48
88.65
88.90
89.15
89.33
89.52
89.72
89.90
90.07
90.22
90.38
90.57
90.75
90.95
91.12
91.25
91.45
91.63
91.77
91.87
92.02
92.20
92.38
92.60
92.82
93.00
93.12
93.23
93.40
93.53
93.63
93.73
93.82
93.93
94.03
94.08
94.10
94.12
94.10
94.10
94.05
94.00
93.97
93.92
93.88
93.83
93.80
93.77
93.77
93.75
93.75
93.70
93.62
93.53
93.47
93.48
93.47
93.47
93.40
93.32
93.22
93.13
93.00
92.87
92.77
92.67
92.55
92.47
92.37
92.25
92.08
91.93
91.80
91.67
91.55
91.45
91.30
91.17
91.05
91.00
90.93
90.87
90.82
90.75
90.72
90.68
90.63
90.58
90.53
90.50
90.47
90.43
90.40
90.35
90.32
90.30
90.28
90.18
90.15
90.08
90.03
90.03
89.95
89.78
89.67
89.58
89.50
89.42
89.30
89.23
89.15
89.13
89.13
89.13
89.12
89.03
89.00
88.95
88.98
89.03
89.07
89.12
89.20
89.32
89.43
89.52
89.58
89.63
89.72
89.77
89.82
89.82
89.77
89.70
89.63
89.53
89.45
89.33
89.20
89.02
88.80
88.58
88.38
88.07
87.70
87.40
87.12
86.80
86.47
86.10
85.82
85.53
85.23
84.87
84.52
84.20
84.22
84.30
84.33
84.38
84.48
84.50
84.62
84.83
84.98
85.12
85.25
85.35
85.45
85.50
85.57
85.62
85.67
85.73
85.82
85.90
86.00
86.08
86.15
86.18
86.22
86.22
86.18
86.13
86.10
86.10
86.17
86.22
86.30
86.38
86.45
86.52
86.57
86.62
86.67
86.73
86.82
86.95
87.12
87.38
87.70
88.05
88.40
88.83
89.32
89.70
90.08
90.48
90.77
91.12
91.40
91.70
92.03
92.47
92.88
93.28
93.37
93.43
93.52
93.58
93.60
93.65
93.68
93.70
93.73
93.77
93.80
93.83
93.88
93.92
93.93
93.93
93.95
93.93
93.87
93.78
93.68
93.60
93.53
93.50
93.55
93.62
93.72
93.83
93.92
94.00
94.07
94.17
94.22
94.33
94.38
94.42
94.63
94.87
95.05
95.23
95.38
95.43
95.50
95.48
95.47
95.42
95.35
95.30
95.22
95.23
95.25
95.30
95.50
95.67
95.83
95.98
96.07
96.10
96.13
96.17
96.15
96.15
96.13
96.12
96.08
96.02
95.97
95.92
95.92
95.93
95.93
95.93
95.93
95.95
95.95
95.95
95.93
95.93
95.97
96.02
96.07
96.10
96.13
96.17
96.10
95.97
95.82
95.60
95.22
94.85
94.52
94.08
93.68
93.23
92.85
92.50
92.02
91.48
90.97
90.42
89.88
89.65
89.43
89.23
89.03
88.98
88.93
88.87
88.83
88.73
88.62
88.45
88.25
88.03
87.78
87.53
87.35
87.17
87.00
86.82
86.67
86.52
86.35
86.17
86.00
85.90
85.85
85.83
85.78
85.83
85.93
86.00
86.05
86.07
86.05
86.08
86.08
86.07
86.03
85.98
85.97
86.03
86.08
86.10
86.12
86.22
86.32
86.47
86.75
87.00
87.17
87.43
87.67
87.90
88.15
88.38
88.65
88.90
89.13
89.38
89.60
89.60
89.52
89.42
89.30
89.03
88.75
88.50
88.23
88.02
87.75
87.53
87.30
87.13
87.12
87.08
86.93
86.65
86.50
86.35
86.18
86.00
85.87
85.77
85.68
85.55
85.42
85.28
85.15
84.93
84.63
84.40
84.17
83.97
83.83
83.68
83.57
83.42
83.42
83.45
83.48
83.45
83.42
83.38
83.35
83.25
83.15
83.05
82.98
82.95
82.95
82.97
83.02
83.08
83.18
83.32
83.43
83.63
83.92
84.23
84.58
84.95
85.38
85.83
86.28
86.73
87.20
87.63
88.05
88.42
88.77
89.10
89.45
89.72
89.85
90.00
90.23
90.60
90.82
91.05
91.30
91.57
91.80
92.03
92.25
92.48
92.67
92.82
92.88
92.97
93.08
93.17
93.25
93.32
93.35
93.38
93.42
93.52
93.48
93.43
93.37
93.30
93.23
93.22
93.22
93.25
93.28
93.32
93.35
93.37
93.37
93.33
93.30
93.28
93.27
93.23
93.17
93.08
92.95
92.78
92.62
92.43
92.22
92.00
91.83
91.65
91.48
91.35
91.23
91.13
91.08
91.05
91.02
91.03
91.05
91.07
91.10
91.17
91.23
91.30
91.38
91.48
91.53
91.58
91.65
91.73
91.82
91.92
92.10
92.27
92.43
92.60
92.73
92.90
93.05
93.18
93.30
93.40
93.47
93.52
93.57
93.62
93.67
93.68
93.70
93.72
93.73
93.73
93.73
93.70
93.67
93.65
93.60
93.52
93.37
93.22
93.10
93.02
92.97
92.93
92.90
92.90
92.93
92.97
92.92
92.88
92.83
92.78
92.72
92.62
92.53
92.42
92.33
92.25
92.17
92.12
92.07
92.00
91.92
91.83
91.73
91.62
91.55
91.48
91.40
91.35
91.28
91.20
91.10
90.97
90.85
90.73
90.62
90.50
90.43
90.40
90.38
90.37
90.38
90.35
90.30
90.18
90.07
89.97
89.88
89.82
89.78
89.80
89.82
89.95
90.12
90.28
90.45
90.67
90.93
91.22
91.47
91.68
91.87
92.07
92.27
92.43
92.60
92.82
93.08
93.37
93.67
93.97
94.32
94.70
95.10
95.52
95.90
96.27
96.62
96.92
97.25
97.57
97.97
98.35
98.73
99.20
99.65
100.13
100.62
101.08
101.57
102.03
102.53
103.08
103.62
104.15
104.65
105.13
105.58
106.08
106.58
107.03
107.65
108.32
108.72
109.22
109.72
110.17
110.62
110.97
111.28
111.52
111.73
111.87
111.95
112.05
112.17
112.27
112.35
112.42
112.50
112.58
112.68
112.77
112.85
112.90
112.92
112.90
112.90
112.88
112.80
112.75
112.68
112.62
112.52
112.38
112.27
112.18
112.13
112.08
111.98
111.90
111.78
111.70
111.62
111.40
111.18
110.90
110.62
110.33
110.05
109.77
109.53
109.23
108.87
108.52
108.22
107.92
107.63
107.12
106.58
106.10
105.45
104.80
104.40
103.97
103.53
103.13
102.73
102.43
102.15
101.93
101.75
101.58
101.45
101.30
101.17
101.02
100.87
100.72
100.57
100.42
100.27
100.13
100.00
99.90
99.83
99.75
99.65
99.55
99.48
99.38
99.25
99.12
98.98
98.88
98.78
98.65
98.50
98.38
98.28
98.17
97.98
97.78
97.55
97.38
97.22
97.12
97.00
96.88
96.77
96.68
96.50
96.33
96.20
96.10
96.02
95.95
95.88
95.95
95.93
95.97
95.95
95.95
95.97
95.97
95.97
95.97
95.95
95.92
95.87
95.82
95.77
95.70
95.62
95.52
95.40
95.28
95.15
95.02
94.87
94.72
94.58
94.43
94.30
94.17
94.02
93.88
93.78
93.67
93.55
93.43
93.32
93.23
93.17
93.10
93.02
92.95
92.88
92.80
92.73
92.68
92.65
92.62
92.62
92.62
92.63
92.60
92.60
92.58
92.57
92.55
92.53
92.50
92.50
92.52
92.48
92.42
92.35
92.32
92.38
92.38
92.45
92.55
92.65
92.77
92.85
92.93
93.00
93.08
93.17
93.22
93.23
93.27
93.32
93.37
93.42
93.43
93.48
93.55
93.65
93.77
93.85
93.92
93.97
94.00
94.02
93.98
93.92
93.85
93.88
93.93
94.03
94.17
94.22
94.30
94.38
94.42
94.45
94.47
94.48
94.53
94.62
94.70
94.77
94.83
94.92
95.07
95.18
95.25
95.32
95.38
95.38
95.38
95.40
95.33
95.32
95.32
95.28
95.23
95.18
95.17
95.17
95.15
95.18
95.23
95.28
95.33
95.38
95.38
95.38
95.38
95.38
95.37
95.33
95.30
95.28
95.30
95.30
95.28
95.25
95.23
95.22
95.22
95.22
95.23
95.28
95.38
95.53
95.67
95.68
95.68
95.65
95.52
95.43
95.32
95.25
95.22
95.20
95.20
95.27
95.18
95.08
94.97
94.85
94.72
94.57
94.37
94.17
93.97
93.73
93.47
93.30
93.17
93.03
92.98
92.92
92.85
92.90
92.95
93.03
93.10
93.13
93.15
93.13
93.10
93.10
93.08
93.08
93.10
93.12
93.15
93.17
93.18
93.20
93.23
93.27
93.30
93.33
93.37
93.40
93.35
93.28
93.22
93.10
92.97
92.83
92.62
92.40
92.22
92.10
92.02
91.93
91.88
91.88
91.88
91.85
91.80
91.73
91.67
91.52
91.48
91.45
91.43
91.45
91.45
91.45
91.45
91.47
91.50
91.57
91.65
91.72
91.75
91.78
91.77
91.75
91.75
91.67
91.60
91.53
91.43
91.32
91.22
91.08
90.95
90.82
90.70
90.58
90.52
90.43
90.35
90.30
90.25
90.20
90.13
90.05
89.98
89.90
89.83
89.77
89.75
89.77
89.80
89.88
89.98
90.07
90.22
90.32
90.43
90.53
90.60
90.65
90.70
90.72
90.72
90.70
90.70
90.70
90.70
90.70
90.70
90.72
90.73
90.75
90.78
90.82
90.85
90.90
90.97
91.03
91.07
91.12
91.18
91.22
91.23
91.25
91.25
91.25
91.25
91.22
91.23
91.28
91.33
91.42
91.48
91.55
91.60
91.63
91.60
91.58
91.57
91.55
91.53
91.52
91.52
91.53
91.55
91.60
91.63
91.68
91.73
91.80
91.83
91.87
91.88
91.88
91.90
91.93
91.95
91.97
92.02
92.10
92.18
92.28
92.38
92.48
92.57
92.65
92.70
92.77
92.83
92.90
92.98
93.05
93.12
93.18
93.25
93.30
93.33
93.37
93.42
93.43
93.45
93.48
93.53
93.60
93.67
93.73
93.78
93.83
93.87
93.88
93.88
93.87
93.87
93.88
93.95
94.03
94.17
94.30
94.42
94.52
94.62
94.68
94.72
94.75
94.77
94.78
94.82
94.85
94.90
94.92
94.95
94.97
94.98
95.00
95.00
94.98
94.97
94.95
94.90
94.83
94.77
94.70
94.63
94.57
94.52
94.45
94.40
94.33
94.27
94.18
94.08
94.00
93.93
93.87
93.80
93.73
93.67
93.58
93.52
93.45
93.38
93.30
93.22
93.12
93.02
92.93
92.87
92.80
92.75
92.72
92.70
92.68
92.67
92.63
92.57
92.50
92.42
92.32
92.23
92.17
92.10
92.07
92.07
92.07
92.07
92.07
92.05
92.02
91.97
91.93
91.88
91.85
91.82
91.78
91.75
91.70
91.65
91.57
91.48
91.40
91.28
91.15
91.03
90.93
90.83
90.77
90.70
90.67
90.67
90.67
90.67
90.65
90.62
90.62
90.63
90.65
90.68
90.72
90.75
90.78
90.82
90.83
90.87
90.90
90.93
90.95
90.95
90.95
90.93
90.90
90.85
90.82
90.80
90.82
90.82
90.80
90.78
90.85
90.88
90.97
91.03
91.10
91.22
91.30
91.27
91.20
91.05
90.93
90.82
90.68
90.55
90.45
90.38
90.33
90.30
90.28
90.28
90.30
90.30
90.28
90.28
90.28
90.30
90.32
90.33
90.35
90.40
90.42
90.38
90.35
90.30
90.25
90.20
90.13
90.08
90.03
89.98
89.95
89.95
89.93
89.90
89.87
89.82
89.77
89.73
89.75
89.82
89.87
89.93
90.02
90.10
90.20
90.28
90.28
90.32
90.37
90.47
90.47
90.72
90.92
91.10
91.23
91.30
91.17
91.15
91.15
91.22
91.27
91.33
91.42
91.38
91.32
91.23
91.13
91.00
90.87
90.70
90.53
90.38
90.25
90.15
90.07
89.98
89.92
89.87
89.78
89.68
89.57
89.47
89.37
89.28
89.18
89.08
88.97
88.83
88.68
88.53
88.38
88.20
88.05
87.92
87.82
87.72
87.62
87.50
87.35
87.15
86.97
86.77
86.53
86.32
86.07
85.82
85.62
85.40
85.20
84.95
84.73
84.30
83.87
83.47
83.12
82.78
82.67
82.55
82.43
82.32
82.18
82.03
81.88
81.87
81.87
81.87
81.90
81.95
82.00
82.07
82.15
82.23
82.32
82.37
82.42
82.47
82.50
82.52
82.55
82.58
82.63
82.68
82.72
82.75
82.80
82.87
82.92
82.97
83.05
83.12
83.15
83.18
83.20
83.20
83.20
83.18
83.15
83.12
83.07
83.02
82.97
82.90
82.83
82.75
82.63
82.52
82.40
82.28
82.15
82.02
81.90
81.80
81.72
81.65
81.60
81.50
81.42
81.37
81.32
81.27
81.20
81.13
81.07
81.02
80.95
80.90
80.83
80.78
80.73
80.68
80.60
80.52
80.42
80.33
80.25
80.15
80.05
79.95
79.85
79.75
79.63
79.53
79.45
79.37
79.28
79.18
79.10
79.00
78.87
78.73
78.63
78.55
78.48
78.43
78.38
78.35
78.33
78.32
78.30
78.27
78.23
78.23
78.27
78.30
78.38
78.47
78.57
78.67
78.77
78.87
78.93
78.97
78.97
78.93
78.87
78.83
78.78
78.72
78.67
78.65
78.67
78.68
78.70
78.70
78.70
78.67
78.63
78.57
78.52
78.47
78.45
78.42
78.40
78.37
78.32
78.25
78.18
78.10
78.03
77.97
77.93
77.88
77.85
77.80
77.77
77.72
77.65
77.58
77.55
77.53
77.53
77.53
77.55
77.55
77.55
77.55
77.53
77.52
77.50
77.50
77.50
77.48
77.45
77.45
77.43
77.42
77.38
77.35
77.32
77.27
77.23
77.20
77.18
77.15
77.13
77.15
77.18
77.22
77.23
77.23
77.23
77.27
77.30
77.33
77.37
77.42
77.48
77.55
77.60
77.65
77.68
77.72
77.73
77.75
77.78
77.83
77.78
77.77
77.72
77.72
77.73
77.77
77.80
77.85
77.90
77.97
78.05
78.15
78.23
78.32
78.38
78.43
78.45
78.47
78.48
78.50
78.52
78.55
78.57
78.58
78.60
78.62
78.63
78.58
78.52
78.45
78.38
78.32
78.25
78.20
78.15
78.12
78.08
78.10
78.13
78.15
78.17
78.17
78.17
78.18
78.08
78.02
77.95
77.88
77.85
77.78
77.72
77.68
77.67
77.67
77.67
77.68
77.70
77.72
77.73
77.73
77.82
77.88
77.97
78.00
78.00
78.00
77.97
77.95
77.90
77.87
77.83
77.77
77.70
77.62
77.43
77.27
77.12
77.00
76.90
76.82
76.78
76.72
76.72
76.72
76.70
76.70
76.70
76.75
76.82
76.87
76.92
76.95
76.98
77.00
77.02
77.03
77.05
77.05
77.03
77.00
76.95
76.90
76.87
76.82
76.87
76.85
76.82
76.78
76.70
76.65
76.57
76.47
76.35
76.23
76.13
76.03
75.95
75.88
75.82
75.75
75.70
75.62
75.53
75.47
75.42
75.35
75.28
75.25
75.25
75.23
75.22
75.18
75.13
75.08
75.12
75.13
75.17
75.17
75.20
75.22
75.20
75.20
75.15
75.10
75.07
75.02
74.95
74.87
74.78
74.70
74.60
74.52
74.43
74.37
74.30
74.23
74.15
74.08
74.02
73.97
73.92
73.87
73.80
73.73
73.65
73.57
73.50
73.47
73.45
73.45
73.47
73.50
73.55
73.60
73.62
73.65
73.68
73.73
73.78
73.87
73.95
74.07
74.18
74.27
74.32
74.35
74.40
74.38
74.35
74.32
74.30
74.32
74.35
74.40
74.47
74.53
74.58
74.65
74.67
74.68
74.68
74.68
74.68
74.68
74.68
74.68
74.70
74.72
74.73
74.77
74.82
74.87
74.92
75.00
75.07
75.13
75.23
75.30
75.35
75.40
75.45
75.48
75.50
75.53
75.50
75.48
75.48
75.47
75.47
75.45
75.45
75.43
75.40
75.35
75.32
75.28
75.25
75.20
75.15
75.08
75.02
74.93
74.82
74.73
74.67
74.62
74.57
74.53
74.52
74.52
74.50
74.48
74.47
74.45
74.42
74.38
74.33
74.27
74.20
74.13
74.08
74.05
74.03
74.00
73.97
73.95
73.93
73.92
73.92
73.92
73.92
73.92
73.92
73.88
73.85
73.83
73.82
73.82
73.85
73.87
73.87
73.88
73.92
73.95
74.05
74.15
74.25
74.35
74.43
74.50
74.53
74.57
74.58
74.60
74.60
74.60
74.58
74.57
74.55
74.55
74.55
74.57
74.62
74.67
74.73
74.80
74.88
74.95
74.98
74.98
74.98
74.98
75.02
75.05
75.10
75.17
75.25
75.35
75.45
75.55
75.65
75.73
75.78
75.85
75.90
75.93
75.97
75.98
76.00
76.02
76.05
76.10
76.17
76.25
76.37
76.47
76.55
76.60
76.62
76.63
76.65
76.65
76.65
76.63
76.63
76.62
76.58
76.52
76.45
76.40
76.37
76.33
76.32
76.32
76.33
76.30
76.30
76.30
76.32
76.33
76.37
76.42
76.45
76.47
76.42
76.38
76.32
76.27
76.25
76.25
76.25
76.27
76.27
76.28
76.30
76.30
76.30
76.28
76.25
76.20
76.15
76.10
76.07
76.05
76.07
76.08
76.10
76.12
76.13
76.12
76.08
76.02
75.95
75.87
75.77
75.67
75.58
75.53
75.50
75.48
75.47
75.47
75.50
75.53
75.57
75.58
75.62
75.67
75.70
75.73
75.77
75.80
75.85
75.88
75.92
75.97
76.00
76.02
76.02
76.00
75.97
75.92
75.88
75.87
75.90
75.92
75.93
75.95
75.95
75.93
75.92
75.87
75.82
75.73
75.67
75.62
75.58
75.57
75.57
75.58
75.60
75.62
75.63
75.63
75.60
75.57
75.53
75.52
75.48
75.48
75.48
75.50
75.52
75.53
75.53
75.55
75.52
75.45
75.38
75.33
75.32
75.32
75.30
75.28
75.28
75.28
75.25
75.22
75.20
75.18
75.17
75.15
75.12
75.08
75.07
75.07
75.08
75.12
75.17
75.22
75.27
75.22
75.17
75.10
75.07
75.07
75.07
75.07
75.07
75.08
75.10
75.13
75.15
75.18
75.22
75.23
75.25
75.27
75.28
75.30
75.32
75.32
75.32
75.30
75.30
75.30
75.30
75.30
75.30
75.30
75.30
75.30
75.28
75.27
75.27
75.25
75.27
75.18
75.17
75.20
75.22
75.22
75.20
75.18
75.15
75.13
75.13
75.13
75.15
75.15
75.15
75.15
75.13
75.12
75.07
75.02
74.97
74.92
74.85
74.78
74.70
74.70
74.70
74.70
74.67
74.62
74.60
74.58
74.58
74.58
74.58
74.60
74.60
74.60
74.58
74.57
74.53
74.50
74.47
74.43
74.40
74.38
74.37
74.37
74.37
74.37
74.37
74.37
74.35
74.33
74.30
74.28
74.27
74.27
74.27
74.28
74.30
74.47
74.57
74.60
74.63
74.67
74.68
74.70
74.73
74.77
74.80
74.83
74.83
74.83
74.83
74.83
74.83
74.83
74.85
74.87
74.87
74.88
74.88
74.88
74.88
74.92
74.95
74.98
75.03
75.07
75.08
75.10
75.10
75.10
75.10
75.07
75.05
75.05
75.05
75.05
75.05
75.07
75.10
75.13
75.17
75.20
75.23
75.27
75.28
75.30
75.33
75.37
75.42
75.48
75.55
75.60
75.65
75.68
75.70
75.70
75.70
75.68
75.67
75.68
75.68
75.68
75.72
75.75
75.77
75.78
75.80
75.82
75.83
75.88
75.92
75.95
76.00
76.03
76.05
76.07
76.08
76.08
76.08
76.08
76.10
76.10
76.12
76.13
76.13
76.13
76.13
76.13
76.13
76.12
76.10
76.10
76.10
76.08
76.07
76.07
76.07
76.05
76.02
75.98
75.95
75.92
75.88
75.83
75.80
75.75
75.68
75.60
75.52
75.42
75.35
75.30
75.25
75.20
75.17
75.12
75.07
75.02
74.97
74.88
74.83
74.80
74.75
74.70
74.63
74.57
74.50
74.42
74.35
74.27
74.20
74.15
74.12
74.10
74.08
74.07
74.03
73.98
73.95
73.92
73.88
73.87
73.85
73.85
73.85
73.85
73.83
73.80
73.75
73.72
73.67
73.62
73.58
73.55
73.53
73.52
73.52
73.52
73.52
73.52
73.52
73.52
73.50
73.50
73.50
73.52
73.53
73.58
73.63
73.68
73.70
73.70
73.70
73.70
73.70
73.73
73.77
73.80
73.85
73.90
73.93
73.95
73.97
73.98
74.00
74.02
74.03
74.07
74.10
74.13
74.17
74.17
74.13
74.07
74.02
73.97
73.95
73.95
73.95
73.97
73.98
73.97
73.93
73.87
73.80
73.73
73.70
73.70
73.72
73.73
73.77
73.78
73.78
73.78
73.75
73.70
73.63
73.57
73.48
73.38
73.28
73.17
73.07
72.98
72.92
72.88
72.87
72.85
72.85
72.85
72.87
72.88
72.90
72.92
72.93
72.93
72.93
72.93
72.92
72.88
72.87
72.85
72.83
72.82
72.82
72.82
72.82
72.82
72.82
72.82
72.82
72.83
72.87
72.93
73.00
73.07
73.12
73.17
73.22
73.25
73.28
73.30
73.33
73.38
73.43
73.47
73.48
73.48
73.52
73.57
73.60
73.65
73.72
73.78
73.88
73.95
74.02
74.08
74.17
74.25
74.33
74.43
74.55
74.65
74.73
74.78
74.83
74.85
74.85
74.83
74.82
74.78
74.75
74.68
74.60
74.53
74.47
74.40
74.32
74.27
74.20
74.17
74.12
74.07
74.02
73.98
73.93
73.88
73.80
73.73
73.67
73.60
73.52
73.45
73.40
73.35
73.28
73.22
73.13
73.05
72.95
72.88
72.80
72.73
72.67
72.63
72.60
72.57
72.50
72.40
72.30
72.20
72.07
71.93
71.80
71.70
71.62
71.53
71.43
71.35
71.27
71.18
71.08
70.98
70.88
70.78
70.68
70.60
70.50
70.42
70.33
70.25
70.15
70.08
70.02
69.95
69.88
69.82
69.78
69.75
69.73
69.72
69.70
69.68
69.67
69.62
69.55
69.47
69.42
69.33
69.45
69.55
69.62
69.68
69.73
69.77
69.80
69.80
69.82
69.83
69.85
69.87
69.90
69.92
69.95
69.98
70.02
70.05
70.08
70.13
70.18
70.22
70.27
70.32
70.35
70.38
70.38
70.38
70.40
70.42
70.43
70.47
70.50
70.53
70.57
70.60
70.60
70.60
70.62
70.63
70.63
70.65
70.68
70.72
70.78
70.83
70.88
70.93
70.97
70.98
70.98
70.97
70.97
70.97
70.97
70.98
71.05
71.13
71.22
71.32
71.20
71.10
71.05
70.98
70.90
70.83
70.78
70.77
70.77
70.77
70.80
70.83
70.85
70.87
70.87
70.85
70.83
70.82
70.80
70.80
70.83
70.88
70.95
71.00
71.05
71.08
71.13
71.17
71.22
71.27
71.30
71.32
71.33
71.37
71.40
71.43
71.50
71.57
71.65
71.73
71.83
71.93
72.02
72.10
72.15
72.18
72.20
72.22
72.25
72.28
72.33
72.37
72.40
72.43
72.48
72.53
72.57
72.58
72.60
72.60
72.60
72.58
72.57
72.55
72.55
72.57
72.60
72.65
72.68
72.73
72.75
72.77
72.77
72.77
72.75
72.73
72.72
72.70
72.67
72.62
72.53
72.45
72.35
72.27
72.17
72.08
72.02
71.95
71.87
71.78
71.70
71.62
71.53
71.43
71.33
71.23
71.12
71.00
70.87
70.73
70.60
70.47
70.35
70.22
70.12
70.03
69.97
69.92
69.85
69.78
69.70
69.62
69.53
69.45
69.37
69.28
69.20
69.13
69.05
68.98
68.93
68.90
68.87
68.85
68.82
68.77
68.70
68.62
68.53
68.43
68.35
68.27
68.18
68.10
68.03
67.95
67.88
67.83
67.80
67.78
67.78
67.78
67.80
67.82
67.85
67.88
67.88
67.90
67.92
67.95
68.00
68.05
68.12
68.18
68.25
68.33
68.40
68.45
68.48
68.50
68.52
68.53
68.53
68.55
68.57
68.58
68.60
68.58
68.55
68.53
68.50
68.47
68.75
69.00
69.22
69.40
69.58
69.80
70.05
70.38
70.73
71.03
71.37
71.72
72.08
72.45
72.82
73.20
73.58
73.97
74.33
74.70
75.08
75.47
75.92
76.38
76.87
77.37
77.90
78.45
78.98
79.38
79.72
80.07
80.37
80.67
81.00
81.32
81.62
81.87
82.20
82.47
82.70
82.93
83.12
83.30
83.52
83.75
84.08
84.45
84.77
85.03
85.27
85.47
85.52
85.53
85.52
85.52
85.52
85.48
85.48
85.48
85.17
84.88
84.62
84.37
84.12
83.82
83.48
83.02
82.52
82.07
81.58
81.07
80.57
80.18
79.78
79.33
78.88
78.45
78.03
77.60
77.17
76.73
76.23
75.75
75.23
74.68
74.10
73.48
72.90
72.43
72.02
71.58
71.22
70.85
70.47
70.08
69.72
69.40
69.00
68.67
68.35
68.03
67.77
67.50
67.22
66.95
66.58
66.22
65.92
65.65
65.40
65.30
65.35
65.45
65.60
65.78
65.98
66.27
66.55
66.82
67.07
67.35
67.65
67.95
68.25
68.55
68.87
69.23
69.63
70.03
70.43
70.82
71.17
71.35
71.52
71.85
72.22
72.55
72.88
73.28
73.70
74.07
74.47
74.85
75.20
75.53
75.85
76.13
76.38
76.65
76.87
77.13
77.37
77.70
78.05
78.43
78.83
79.20
79.57
79.92
80.17
80.43
80.78
81.07
81.30
81.47
81.65
81.77
81.88
82.00
82.15
82.05
81.92
81.77
81.58
81.35
81.12
80.82
80.50
80.22
79.95
79.67
79.38
79.13
78.87
78.63
78.38
78.15
77.88
77.65
77.40
77.17
76.95
76.78
76.65
76.50
76.42
76.28
75.98
75.68
75.37
75.13
74.87
74.60
74.37
74.12
73.90
73.70
73.55
73.32
73.18
73.05
72.93
72.75
72.55
72.33
72.08
71.87
71.63
71.40
71.38
71.33
71.18
71.07
70.98
70.95
70.92
70.95
71.02
71.10
71.20
71.43
71.70
71.97
72.25
72.55
72.83
73.12
73.43
73.72
74.02
74.27
74.52
74.75
75.00
75.25
75.53
75.85
76.23
76.58
76.95
77.32
77.68
78.03
78.37
78.57
78.65
78.75
79.02
79.22
79.45
79.65
79.87
80.08
80.32
80.60
80.88
81.15
81.40
81.72
81.97
82.17
82.35
82.52
82.68
82.85
83.03
83.20
83.38
83.57
83.65
83.75
83.85
83.98
84.13
84.28
84.45
84.63
84.77
84.92
85.03
85.15
85.23
85.30
85.35
85.37
85.40
85.43
85.43
85.43
85.42
85.43
85.43
85.43
85.43
85.42
85.40
85.33
85.23
85.12
85.00
84.88
84.77
84.67
84.58
84.52
84.45
84.43
84.42
84.43
84.42
84.40
84.37
84.33
84.28
84.23
84.15
84.12
84.07
84.03
84.02
83.98
83.97
83.93
83.88
83.83
83.77
83.70
83.63
83.60
83.55
83.52
83.50
83.47
83.45
83.45
83.43
83.38
83.33
83.27
83.22
83.17
83.13
83.10
83.08
83.10
83.13
83.17
83.20
83.27
83.35
83.43
83.53
83.63
83.75
83.87
83.97
84.07
84.13
84.22
84.28
84.33
84.37
84.40
84.43
84.47
84.52
84.57
84.60
84.62
84.63
84.65
84.67
84.68
84.70
84.68
84.68
84.68
84.68
84.68
84.67
84.67
84.68
84.70
84.75
84.80
84.88
85.00
85.12
85.22
85.30
85.37
85.43
85.48
85.52
85.52
85.50
85.48
85.47
85.45
85.43
85.42
85.42
85.43
85.45
85.47
85.47
85.45
85.43
85.40
85.35
85.28
85.18
85.08
84.98
84.90
84.82
84.75
84.70
84.65
84.63
84.62
84.62
84.60
84.58
84.57
84.53
84.52
84.50
84.50
84.50
84.50
84.50
84.50
84.50
84.52
84.53
84.55
84.57
84.58
84.63
84.68
84.70
84.72
84.72
84.70
84.67
84.60
84.53
84.47
84.42
84.37
84.30
84.27
84.23
84.22
84.22
84.22
84.22
84.22
84.22
84.22
84.22
84.22
84.22
84.22
84.22
84.25
84.28
84.32
84.33
84.37
84.42
84.47
84.50
84.52
84.55
84.57
84.58
84.60
84.62
84.65
84.68
84.73
84.78
84.83
84.90
84.95
85.00
85.03
85.05
85.08
85.12
85.15
85.18
85.22
85.23
85.23
85.23
85.23
85.22
85.20
85.22
85.23
85.25
85.28
85.32
85.33
85.35
85.37
85.38
85.40
85.43
85.45
85.47
85.48
85.50
85.52
85.53
85.55
85.57
85.57
85.53
85.50
85.45
85.40
85.35
85.30
85.27
85.23
85.22
85.18
85.17
85.13
85.10
85.07
85.03
85.02
85.02
85.02
85.00
84.98
84.97
84.95
84.92
84.88
84.85
84.83
84.83
84.83
84.85
84.85
84.87
84.90
84.93
84.97
85.02
85.08
85.15
85.22
85.25
85.30
85.32
85.33
85.35
85.37
85.40
85.45
85.52
85.60
85.67
85.75
85.83
85.92
86.00
86.07
86.12
86.17
86.22
86.28
86.35
86.45
86.57
86.68
86.82
86.97
87.12
87.27
87.40
87.55
87.70
87.87
88.03
88.22
88.42
88.62
88.80
88.97
89.12
89.27
89.42
89.55
89.68
89.82
89.97
90.12
90.27
90.42
90.57
90.72
90.88
91.05
91.20
91.32
91.42
91.50
91.57
91.60
91.62
91.63
91.68
91.70
91.75
91.80
91.85
91.92
91.97
92.02
92.05
92.08
92.12
92.10
92.05
91.97
91.88
91.82
91.77
91.72
91.68
91.65
91.62
91.57
91.52
91.47
91.43
91.38
91.33
91.27
91.20
91.13
91.05
90.95
90.83
90.72
90.58
90.45
90.32
90.17
90.02
89.88
89.75
89.62
89.48
89.33
89.18
89.05
88.92
88.77
88.65
88.57
88.47
88.37
88.27
88.15
88.02
87.87
87.73
87.62
87.52
87.42
87.33
87.28
87.23
87.20
87.15
87.08
87.02
86.95
86.87
86.78
86.72
86.70
86.70
86.75
86.78
86.80
86.82
86.83
86.83
86.82
86.83
86.87
86.90
86.95
86.98
87.02
87.05
87.08
87.12
87.13
87.17
87.22
87.27
87.32
87.33
87.38
87.43
87.50
87.58
87.67
87.75
87.87
87.98
88.10
88.20
88.27
88.32
88.37
88.37
88.32
88.27
88.22
88.18
88.18
88.22
88.28
88.37
88.45
88.53
88.62
88.67
88.70
88.70
88.70
88.72
88.75
88.78
88.82
88.87
88.90
88.95
88.97
88.98
88.98
89.00
89.03
89.07
89.10
89.13
89.20
89.23
89.23
89.23
89.22
89.20
89.18
89.17
89.15
89.13
89.12
89.10
89.07
89.05
89.03
89.05
89.03
89.03
89.03
89.02
88.98
88.95
88.90
88.85
88.82
88.80
88.80
88.82
88.83
88.87
88.92
88.98
89.03
89.07
89.10
89.13
89.13
89.10
89.08
89.08
89.08
89.12
89.13
89.18
89.18
89.20
89.15
89.08
89.02
88.97
88.92
88.83
88.78
88.78
88.77
88.75
88.72
88.70
88.67
88.65
88.58
88.50
88.45
88.40
88.33
88.30
88.28
88.28
88.27
88.23
88.22
88.18
88.15
88.08
88.00
87.93
87.87
87.80
87.77
87.72
87.67
87.60
87.55
87.50
87.45
87.42
87.37
87.33
87.30
87.27
87.22
87.15
87.10
87.07
87.02
86.98
86.98
87.00
87.02
86.98
86.95
86.90
86.88
86.85
86.85
86.85
86.90
86.97
87.03
87.08
87.12
87.17
87.22
87.23
87.25
87.28
87.33
87.37
87.42
87.43
87.47
87.52
87.55
87.58
87.63
87.65
87.65
87.65
87.67
87.68
87.68
87.70
87.73
87.78
87.83
87.88
87.93
87.98
88.00
88.03
88.05
88.08
88.10
88.12
88.13
88.15
88.18
88.22
88.25
88.28
88.32
88.35
88.38
88.40
88.42
88.42
88.42
88.42
88.42
88.45
88.48
88.50
88.52
88.53
88.53
88.52
88.48
88.45
88.42
88.38
88.38
88.38
88.37
88.37
88.38
88.37
88.35
88.32
88.27
88.27
88.28
88.30
88.32
88.35
88.40
88.45
88.52
88.53
88.55
88.58
88.62
88.63
88.65
88.68
88.72
88.73
88.73
88.72
88.72
88.72
88.75
88.78
88.83
88.88
88.92
88.93
88.93
88.92
88.87
88.82
88.78
88.73
88.70
88.67
88.65
88.63
88.63
88.62
88.60
88.58
88.57
88.57
88.55
88.52
88.50
88.48
88.48
88.47
88.47
88.47
88.45
88.45
88.45
88.42
88.40
88.40
88.40
88.42
88.45
88.45
88.42
88.37
88.35
88.33
88.30
88.28
88.25
88.25
88.23
88.22
88.18
88.17
88.15
88.12
88.12
88.13
88.17
88.20
88.20
88.18
88.13
88.07
88.00
87.92
87.88
87.88
87.90
87.92
87.97
88.00
88.02
88.03
88.03
88.03
88.03
88.03
88.02
88.03
88.03
88.03
88.02
88.00
88.00
88.02
88.05
88.08
88.10
88.13
88.15
88.17
88.18
88.18
88.17
88.17
88.17
88.17
88.18
88.20
88.23
88.28
88.35
88.42
88.45
88.47
88.48
88.48
88.48
88.48
88.53
88.55
88.58
88.62
88.62
88.62
88.60
88.57
88.53
88.50
88.50
88.50
88.52
88.57
88.60
88.63
88.63
88.62
88.58
88.55
88.53
88.53
88.57
88.62
88.68
88.73
88.78
88.83
88.87
88.87
88.87
88.87
88.90
88.93
88.97
89.00
89.02
89.03
89.05
89.07
89.07
89.07
89.07
89.05
89.05
89.05
89.03
89.02
88.98
88.97
88.93
88.90
88.88
88.88
88.88
88.88
88.88
88.88
88.87
88.87
88.78
88.70
88.60
88.50
88.45
88.50
88.53
88.55
88.58
88.60
88.58
88.58
88.58
88.57
88.55
88.55
88.55
88.53
88.53
88.52
88.53
88.55
88.57
88.58
88.57
88.57
88.57
88.53
88.53
88.57
88.60
88.68
88.75
88.82
88.87
88.90
88.90
88.88
88.87
88.82
88.78
88.75
88.73
88.73
88.72
88.70
88.67
88.62
88.53
88.42
88.27
88.13
87.98
87.83
87.67
87.48
87.33
87.22
87.27
87.32
87.40
87.57
87.72
87.85
87.95
87.93
87.93
87.93
88.07
88.03
88.05
88.08
88.12
88.15
88.20
88.23
88.30
88.32
88.35
88.42
88.43
88.45
88.43
88.42
88.42
88.37
88.32
88.35
88.37
88.37
88.37
88.30
88.20
88.12
87.92
87.73
87.57
87.43
87.35
87.28
87.27
87.23
87.27
87.32
87.42
87.52
87.60
87.72
87.88
88.05
88.22
88.37
88.50
88.63
88.78
88.95
89.05
89.10
89.00
88.87
88.75
88.58
88.45
88.35
88.25
88.15
88.07
88.02
87.83
87.85
87.85
87.85
87.85
87.85
87.83
87.82
87.75
87.73
87.70
87.63
87.60
87.58
87.58
87.58
87.60
87.67
87.73
87.75
87.77
87.77
87.82
87.90
88.05
88.22
88.52
88.83
89.18
89.53
89.83
90.15
90.43
90.73
90.95
91.13
91.25
91.35
91.48
91.48
91.52
91.57
91.58
91.58
91.60
91.63
91.67
91.70
91.77
91.85
91.93
92.03
92.15
92.23
92.32
92.38
92.47
92.58
92.68
92.77
92.83
92.88
92.92
92.92
92.92
92.92
92.90
92.88
92.85
92.82
92.78
92.77
92.73
92.68
92.63
92.58
92.52
92.45
92.38
92.32
92.25
92.20
92.12
92.02
91.87
91.68
91.48
91.27
91.05
90.82
90.60
90.38
90.15
89.92
89.67
89.43
89.23
89.05
88.87
88.78
88.67
88.58
88.55
88.53
88.50
88.45
88.38
88.37
88.40
88.45
88.50
88.55
88.60
88.68
88.77
88.83
88.92
88.98
89.07
89.15
89.23
89.30
89.35
89.37
89.33
89.30
89.30
89.32
89.25
89.18
89.13
89.15
89.15
89.15
89.13
89.08
88.88
88.63
88.43
88.28
88.18
88.08
87.75
88.03
88.33
88.65
88.97
89.28
89.58
89.88
90.18
90.48
90.78
91.08
91.40
91.72
92.03
92.37
92.70
93.05
93.38
93.68
93.98
94.28
94.60
94.92
95.25
95.50
95.70
95.87
96.00
96.17
96.32
96.47
96.62
96.80
96.97
97.13
97.28
97.38
97.48
97.62
97.77
97.97
98.18
98.37
98.55
98.72
98.97
99.22
99.42
99.52
99.65
99.77
99.88
100.02
100.30
100.63
100.88
101.08
101.25
101.45
101.90
101.75
101.58
101.38
101.17
100.90
100.67
100.43
100.18
99.93
99.67
99.40
99.17
98.90
98.65
98.37
98.10
97.83
97.58
97.30
97.03
96.77
96.52
96.23
95.95
95.70
95.47
95.23
95.03
94.77
94.48
94.20
93.92
93.60
93.25
92.87
92.48
92.13
91.78
91.43
91.07
90.68
90.35
90.05
89.72
89.42
89.20
88.95
88.73
88.58
88.37
88.07
87.82
87.60
87.42
87.23
87.10
86.97
86.82
86.63
86.40
86.13
85.88
85.63
85.42
85.25
85.05
84.85
84.67
84.48
84.32
84.17
83.98
83.83
83.68
83.55
83.40
83.23
83.03
82.85
82.65
82.43
82.18
81.95
81.70
81.45
81.17
80.90
80.60
80.33
80.08
79.85
79.63
79.45
79.33
79.27
79.15
79.05
78.97
78.87
78.77
78.68
78.57
78.43
78.33
78.22
78.05
77.87
77.67
77.43
77.23
77.13
77.15
77.15
77.10
77.05
77.00
76.95
76.93
76.92
76.93
76.97
77.02
77.10
77.15
77.20
77.25
77.28
77.37
77.53
77.62
77.67
77.72
77.73
77.62
77.52
77.43
77.37
77.32
77.30
77.30
77.28
77.30
77.33
77.38
77.45
77.55
77.65
77.78
77.93
78.10
78.23
78.35
78.45
78.52
78.58
78.70
78.78
78.85
78.93
79.03
79.12
79.20
79.28
79.33
79.37
79.38
79.45
79.52
79.62
79.75
79.92
79.98
80.03
80.10
80.17
80.18
80.18
80.13
80.05
79.92
79.75
79.55
79.33
79.12
78.92
78.72
78.57
78.40
78.15
78.02
77.92
77.85
77.85
77.98
78.12
78.23
78.37
78.50
78.60
78.70
78.82
78.93
79.05
79.17
79.25
79.30
79.32
79.32
79.28
79.17
79.07
78.97
78.87
78.77
78.67
78.58
78.53
78.50
78.45
78.40
78.37
78.33
78.32
78.32
78.33
78.37
78.40
78.43
78.45
78.43
78.37
78.27
78.18
78.12
78.07
78.07
78.10
78.15
78.25
78.38
78.55
78.72
78.88
79.05
79.18
79.32
79.42
79.48
79.55
79.58
79.60
79.60
79.57
79.53
79.48
79.43
79.40
79.37
79.35
79.35
79.35
79.33
79.32
79.30
79.28
79.23
79.20
79.17
79.12
79.13
79.13
79.13
79.15
79.17
79.17
79.17
79.17
79.17
79.17
79.18
79.20
79.25
79.32
79.38
79.45
79.50
79.55
79.60
79.62
79.63
79.65
79.65
79.67
79.67
79.63
79.58
79.52
79.45
79.40
79.33
79.27
79.22
79.15
79.10
79.05
78.98
78.92
78.85
78.82
78.78
78.77
78.73
78.70
78.67
78.63
78.58
78.50
78.42
78.30
78.15
78.00
77.85
77.70
77.55
77.42
77.33
77.27
77.22
77.22
77.22
77.23
77.25
77.25
77.25
77.25
77.23
77.22
77.18
77.17
77.13
77.12
77.10
77.07
77.05
77.03
77.03
77.03
77.05
77.07
77.08
77.10
77.12
77.12
77.12
77.13
77.15
77.17
77.20
77.22
77.25
77.28
77.33
77.38
77.43
77.48
77.52
77.55
77.58
77.58
77.58
77.57
77.58
77.58
77.55
77.52
77.50
77.50
77.50
77.55
77.58
77.62
77.72
77.85
77.97
78.08
78.20
78.30
78.35
78.37
78.40
78.43
78.45
78.45
78.45
78.45
78.45
78.45
78.47
78.47
78.47
78.47
78.45
78.43
78.38
78.33
78.28
78.23
78.18
78.13
78.08
78.05
78.02
77.98
77.95
77.92
77.88
77.85
77.80
77.73
77.67
77.60
77.53
77.48
77.43
77.42
77.43
77.47
77.50
77.53
77.57
77.60
77.62
77.65
77.70
77.75
77.80
77.83
77.87
77.88
77.92
77.95
77.90
77.82
77.73
77.65
77.57
77.52
77.52
77.55
77.58
77.62
77.68
77.77
77.85
77.93
78.00
78.05
78.07
78.08
78.10
78.12
78.15
78.20
78.28
78.37
78.47
78.57
78.65
78.75
78.83
78.92
79.00
79.07
79.12
79.17
79.22
79.25
79.27
79.28
79.30
79.32
79.32
79.33
79.35
79.35
79.35
79.32
79.28
79.25
79.20
79.17
79.12
79.07
79.02
78.97
78.93
78.90
78.87
78.83
78.82
78.80
78.80
78.80
78.83
78.87
78.90
78.93
78.97
79.00
78.97
78.92
78.82
78.72
78.60
78.48
78.32
78.15
77.97
77.80
77.92
78.05
78.15
78.27
78.37
78.45
78.52
78.58
78.67
78.73
78.83
78.93
79.02
79.12
79.23
79.33
79.43
79.53
79.58
79.67
79.77
79.88
80.03
80.23
80.35
80.50
80.65
80.80
80.90
80.98
81.07
81.13
81.22
81.32
81.38
81.58
81.73
81.88
82.03
82.17
82.28
82.38
82.48
82.57
82.63
82.70
82.75
82.78
82.82
82.83
82.90
82.97
83.07
83.17
83.28
83.42
83.62
83.85
84.12
84.38
84.37
84.30
84.25
84.17
84.05
83.95
83.85
83.75
83.65
83.55
83.43
83.32
83.22
83.12
83.02
82.93
82.85
82.78
82.78
82.75
82.70
82.63
82.53
82.38
82.30
82.18
82.08
82.00
81.97
81.95
81.95
81.93
81.90
81.85
81.82
81.65
81.52
81.38
81.23
81.08
80.95
80.85
80.75
80.68
80.63
80.60
80.58
80.57
80.52
80.43
80.33
80.23
80.13
80.03
79.93
79.82
79.70
79.57
79.43
79.27
79.10
78.95
78.80
78.67
78.57
78.47
78.37
78.27
78.17
78.08
78.00
77.93
77.87
77.80
77.73
77.67
77.60
77.52
77.43
77.33
77.23
77.13
77.03
76.92
76.82
76.72
76.58
76.45
76.32
76.18
76.05
75.95
75.85
75.75
75.67
75.58
75.52
75.45
75.40
75.37
75.33
75.30
75.27
75.25
75.20
75.13
75.07
75.00
74.97
74.97
75.00
75.02
75.03
75.05
75.10
75.13
75.17
75.22
75.27
75.33
75.42
75.50
75.58
75.65
75.72
75.80
75.88
75.97
76.07
76.17
76.27
76.35
76.43
76.52
76.62
76.72
76.82
76.93
77.05
77.17
77.28
77.38
77.48
77.57
77.65
77.73
77.82
77.88
77.95
78.02
78.08
78.15
78.22
78.28
78.33
78.37
78.38
78.38
78.38
78.38
78.38
78.38
78.38
78.37
78.37
78.37
78.38
78.38
78.37
78.35
78.32
78.32
78.32
78.32
78.28
78.28
78.28
78.27
78.25
78.22
78.17
78.10
78.03
77.97
77.90
77.82
77.73
77.67
77.58
77.50
77.42
77.35
77.27
77.20
77.10
77.00
76.90
76.80
76.70
76.62
76.55
76.50
76.47
76.45
76.43
76.43
76.45
76.48
76.52
76.53
76.55
76.55
76.55
76.55
76.57
76.62
76.68
76.78
76.90
77.02
77.15
77.27
77.37
77.45
77.52
77.58
77.63
77.70
77.78
77.87
77.95
78.02
78.08
78.15
78.20
78.23
78.28
78.32
78.37
78.43
78.50
78.58
78.68
78.78
78.88
78.98
79.08
79.17
79.23
79.30
79.37
79.40
79.45
79.48
79.53
79.57
79.62
79.67
79.72
79.77
79.82
79.87
79.90
79.93
79.95
79.93
79.90
79.83
79.75
79.68
79.60
79.53
79.47
79.42
79.37
79.30
79.23
79.20
79.17
79.10
79.03
78.95
78.90
79.00
79.15
79.28
79.43
79.60
79.75
79.90
80.05
80.18
80.32
80.47
80.65
80.88
81.15
81.43
81.72
82.02
82.37
82.70
82.98
83.25
83.50
83.75
84.02
84.30
84.60
84.80
85.02
85.25
85.48
85.72
85.93
86.15
86.33
86.52
86.70
86.88
87.05
87.22
87.42
87.62
87.83
88.08
88.35
88.65
88.97
89.27
89.58
89.88
90.18
90.47
90.75
91.05
91.32
91.55
91.75
92.00
92.22
92.45
92.68
92.78
92.85
92.95
93.02
93.05
93.10
93.12
93.12
93.13
93.10
93.03
92.93
92.78
92.58
92.37
92.15
91.95
91.70
91.45
91.23
91.10
91.00
90.90
90.78
90.68
90.58
90.58
90.57
90.53
90.52
90.50
90.53
90.57
90.58
90.58
90.57
90.53
90.47
90.42
90.30
90.10
89.87
89.63
89.38
89.12
88.85
88.62
88.40
88.07
87.73
87.40
87.05
86.67
86.30
85.93
85.60
85.25
84.92
84.62
84.30
83.98
83.68
83.37
83.08
82.80
82.53
82.28
82.07
81.85
81.70
81.57
81.48
81.38
81.28
81.20
81.12
81.00
80.87
80.75
80.60
80.38
80.15
79.92
79.67
79.42
79.18
78.97
78.78
78.62
78.43
78.25
78.02
77.80
77.62
77.43
77.27
77.10
76.98
76.83
76.72
76.68
76.68
76.67
76.67
76.68
76.70
76.72
76.70
76.83
76.97
77.10
77.28
77.50
77.73
77.95
78.15
78.35
78.52
78.63
78.73
78.80
78.78
78.77
78.77
78.80
78.90
78.95
78.98
79.05
79.12
79.18
79.23
79.30
79.37
79.42
79.45
79.47
79.50
79.47
79.50
79.55
79.63
79.70
79.78
79.83
79.88
79.92
79.93
79.97
80.02
80.10
80.23
80.38
80.55
80.73
80.92
81.12
81.30
81.52
81.73
81.97
82.20
82.42
82.63
82.83
83.03
83.20
83.37
83.50
83.63
83.78
83.90
84.00
84.10
84.18
84.28
84.38
84.52
84.68
84.87
85.07
85.32
85.57
85.78
85.97
86.07
86.22
86.40
86.58
86.77
86.95
87.15
87.35
87.58
87.85
88.12
88.40
88.68
89.02
89.33
89.62
89.83
90.07
90.32
90.57
90.82
91.07
91.30
91.52
91.73
91.90
91.98
92.07
92.13
92.17
92.22
92.25
92.28
92.33
92.42
92.47
92.50
92.58
92.68
92.78
92.92
93.05
93.20
93.32
93.47
93.55
93.58
93.60
93.60
93.63
93.65
93.68
93.70
93.73
93.82
93.90
94.00
94.12
94.23
94.37
94.50
94.62
94.70
94.73
94.73
94.63
94.53
94.43
94.30
94.15
94.00
93.83
93.67
93.50
93.32
93.15
93.03
92.90
92.75
92.60
92.45
92.30
92.13
91.97
91.78
91.62
91.52
91.38
91.25
91.15
91.03
90.93
90.82
90.67
90.53
90.43
90.35
90.22
90.05
89.75
89.47
89.18
88.95
88.77
88.55
88.43
88.37
88.33
88.27
88.20
88.17
88.10
88.03
87.97
87.85
87.73
87.62
87.48
87.37
87.27
87.12
87.02
86.93
86.83
86.73
86.68
86.63
86.57
86.55
86.48
86.42
86.33
86.25
86.23
86.17
86.10
86.03
86.02
86.02
86.05
86.10
86.20
86.35
86.45
86.60
86.73
86.85
87.00
87.18
87.37
87.52
87.68
87.90
88.08
88.23
88.37
88.48
88.60
88.73
89.03
89.25
89.47
89.63
89.75
89.83
89.83
89.82
89.80
89.82
89.83
89.83
89.87
89.93
89.97
90.02
90.07
90.10
90.15
90.18
90.22
90.30
90.37
90.45
90.60
90.77
91.00
91.20
91.37
91.48
91.65
91.75
91.92
92.07
92.17
92.37
92.58
92.78
93.05
93.42
93.75
94.02
94.25
94.43
94.67
94.85
95.08
95.30
95.53
95.73
95.98
96.32
96.62
96.88
97.23
97.57
97.93
98.30
98.67
98.98
99.28
99.60
99.90
100.20
100.50
100.83
101.23
101.68
102.07
101.87
101.65
101.43
101.20
100.95
100.70
100.43
100.18
99.97
99.73
99.50
99.27
99.03
98.82
98.58
98.33
98.08
97.82
97.55
97.33
97.12
96.90
96.75
96.55
96.38
96.22
96.00
95.77
95.55
95.23
94.80
94.37
93.97
93.55
93.15
92.75
92.37
91.95
91.55
91.12
90.70
90.25
89.75
89.27
88.77
88.22
87.67
87.08
86.50
85.93
85.40
84.85
84.32
83.82
83.32
82.83
82.35
81.83
81.27
80.75
80.82
80.88
80.92
80.95
80.98
81.02
81.05
81.07
81.07
81.07
81.07
81.05
81.05
81.03
81.00
80.98
80.97
80.95
80.93
80.93
80.93
80.93
80.93
80.95
80.95
80.95
80.95
80.95
80.93
80.92
80.90
80.88
80.87
80.85
80.83
80.82
80.78
80.75
80.72
80.68
80.63
80.57
80.50
80.45
80.42
80.38
80.35
80.32
80.30
80.27
80.25
80.25
80.25
80.25
80.25
80.25
80.25
80.28
80.32
80.33
80.35
80.38
80.43
80.50
80.57
80.63
80.70
80.78
80.90
80.95
81.02
81.08
81.12
81.18
81.25
81.32
81.38
81.52
81.58
81.62
81.62
81.62
81.60
81.60
81.55
81.48
81.42
81.37
81.32
81.28
81.27
81.35
81.42
81.47
81.50
81.52
81.57
81.63
81.68
81.73
81.80
81.85
82.00
82.13
82.23
82.35
82.43
82.40
82.38
82.42
82.47
82.52
82.58
82.67
82.73
82.80
82.85
82.85
82.87
82.90
82.93
82.93
82.92
82.90
82.90
82.88
82.88
82.87
82.85
82.92
82.97
83.07
83.17
83.23
83.35
83.42
83.50
83.53
83.65
83.75
83.87
84.02
84.22
84.40
84.65
84.93
85.23
85.52
85.80
86.08
86.35
86.57
86.80
87.10
87.50
87.90
88.28
